318,303,304,306,0
320,312,304,310,0
319,326,303,316,0
316,343,302,321,0
313,359,301,322,0
309,369,300,320,0
306,367,298,315,0
303,348,298,310,0
303,325,299,306,0
303,306,301,306,0
304,290,302,308,0
303,276,303,311,0
303,274,303,314,0
302,286,302,315,0
303,298,301,316,0
304,303,301,316,0
306,303,301,319,0
309,303,302,320,0
312,303,303,321,0
314,304,304,321,0
314,308,305,320,0
313,314,304,320,0
312,321,303,318,0
311,323,302,316,0
309,320,302,312,0
306,314,301,307,0
304,306,300,301,0
302,297,299,296,0
300,288,298,293,0
299,283,299,293,0
299,280,300,294,0
301,277,301,297,0
302,275,304,299,0
302,274,305,300,0
301,276,306,300,0
301,289,306,300,0
304,310,305,301,0
310,330,304,304,0
316,342,302,306,0
321,345,299,307,0
325,343,297,309,0
324,338,297,312,0
316,331,298,315,0
307,317,299,316,0
301,302,301,314,0
298,292,301,312,0
297,293,301,311,0
298,301,301,310,0
299,312,301,309,0
298,322,299,308,0
298,328,298,307,0
298,327,298,306,0
300,319,297,306,0
302,305,297,306,0
303,288,297,306,0
303,279,297,305,0
301,281,298,304,0
298,288,298,303,0
296,294,300,303,0
297,301,302,304,0
300,307,304,307,0
302,306,307,310,0
302,303,307,312,0
300,303,306,312,0
297,307,304,312,0
295,310,302,311,0
295,311,300,309,0
296,313,300,308,0
298,310,299,306,0
299,299,298,304,0
298,282,298,302,0
297,265,299,300,0
298,255,301,299,0
301,258,303,301,0
304,264,306,303,0
306,266,307,306,0
307,265,307,308,0
307,264,305,308,0
306,270,304,307,0
304,279,302,305,0
304,290,301,303,0
305,299,302,303,0
306,307,303,303,0
306,320,303,303,0
304,335,304,303,0
301,340,304,305,0
297,336,305,309,0
296,335,306,316,0
297,338,306,321,0
299,333,306,324,0
302,311,305,324,0
306,287,305,323,0
310,270,305,322,0
314,263,305,323,0
315,270,308,324,0
316,291,313,325,0
315,311,318,325,0
314,324,321,324,0
312,330,322,322,0
307,333,321,320,0
302,335,317,318,0
297,333,313,315,0
295,329,309,313,0
296,322,307,312,0
299,315,306,311,0
302,310,307,311,0
303,309,308,309,0
305,311,309,307,0
307,315,309,305,0
308,322,307,303,0
307,329,306,300,0
306,334,304,297,0
304,332,303,295,0
302,326,302,292,0
301,315,301,290,0
300,300,301,289,0
299,282,301,290,0
299,274,301,293,0
300,280,303,297,0
302,289,305,303,0
304,297,307,307,0
304,307,308,310,0
305,317,309,313,0
305,324,310,314,0
306,324,311,314,0
308,319,310,313,0
310,312,309,313,0
310,304,308,312,0
308,295,307,311,0
307,290,307,309,0
305,289,307,309,0
305,290,307,308,0
304,292,307,309,0
303,291,307,311,0
302,289,307,314,0
302,288,306,315,0
302,291,306,316,0
305,293,306,315,0
309,294,307,314,0
315,301,307,313,0
319,310,309,311,0
319,317,311,310,0
313,321,315,308,0
306,323,319,306,0
302,321,321,303,0
303,314,322,301,0
307,305,323,301,0
312,297,323,301,0
317,288,322,303,0
318,285,319,304,0
313,292,314,306,0
306,301,310,307,0
301,307,308,308,0
299,313,307,309,0
300,317,305,309,0
301,320,304,309,0
303,321,303,308,0
304,320,303,307,0
305,318,303,305,0
306,313,303,305,0
306,308,305,306,0
307,304,307,307,0
308,305,308,309,0
308,308,309,313,0
308,310,309,315,0
308,307,309,316,0
308,304,309,315,0
308,301,310,313,0
307,301,310,310,0
306,300,311,306,0
305,299,310,302,0
303,300,310,298,0
302,302,309,296,0
301,304,308,296,0
302,304,308,297,0
303,303,309,302,0
305,302,311,309,0
306,301,312,317,0
308,302,313,321,0
308,305,314,323,0
309,312,315,322,0
309,318,316,321,0
309,320,316,319,0
309,319,315,316,0
308,315,314,312,0
308,309,313,310,0
307,300,311,309,0
308,287,310,309,0
308,270,308,308,0
307,252,306,306,0
305,240,304,304,0
302,244,304,301,0
301,265,303,299,0
299,292,302,296,0
298,311,302,294,0
299,321,301,296,0
301,324,301,301,0
303,319,301,308,0
303,309,303,314,0
303,301,304,319,0
303,293,306,322,0
306,289,309,323,0
310,293,311,321,0
313,305,312,316,0
313,315,311,309,0
310,321,309,303,0
308,321,308,298,0
306,317,307,295,0
304,313,307,294,0
303,308,307,294,0
303,305,307,294,0
302,304,308,295,0
302,305,308,296,0
303,306,309,298,0
304,306,310,299,0
305,305,311,299,0
305,303,313,299,0
305,301,315,299,0
304,295,318,300,0
304,289,320,301,0
306,289,321,304,0
307,293,321,307,0
308,300,320,310,0
307,307,319,314,0
306,313,318,319,0
307,315,317,325,0
309,314,316,329,0
311,311,316,332,0
312,309,315,332,0
313,316,314,330,0
314,331,313,325,0
312,348,312,320,0
307,361,310,315,0
303,368,309,308,0
302,361,307,302,0
303,339,306,297,0
306,310,306,294,0
309,281,306,294,0
309,261,306,295,0
307,255,306,297,0
304,266,306,299,0
301,286,306,303,0
298,307,306,306,0
296,324,306,311,0
296,335,308,315,0
299,338,310,318,0
304,335,312,320,0
309,326,313,321,0
311,317,313,321,0
311,308,313,320,0
310,296,313,319,0
309,287,312,317,0
308,280,312,314,0
308,277,313,311,0
309,278,314,309,0
310,282,315,309,0
310,285,316,311,0
309,287,317,313,0
308,285,317,314,0
306,280,316,314,0
305,274,314,311,0
305,273,310,308,0
305,276,308,306,0
306,280,306,304,0
307,288,305,302,0
307,295,306,300,0
307,298,306,298,0
307,297,306,297,0
307,296,307,296,0
307,296,307,295,0
307,294,307,295,0
306,296,308,296,0
305,308,309,299,0
305,319,309,303,0
304,323,308,308,0
303,323,307,311,0
303,323,306,313,0
303,317,306,315,0
303,300,307,319,0
304,276,307,322,0
305,249,309,323,0
305,226,309,321,0
306,218,309,318,0
308,229,308,315,0
309,249,308,313,0
312,270,309,312,0
316,291,310,310,0
319,312,309,308,0
317,329,308,305,0
311,343,308,302,0
306,351,309,299,0
303,356,309,297,0
301,356,308,295,0
300,350,307,294,0
299,341,306,294,0
297,329,306,296,0
297,319,307,298,0
298,314,308,302,0
300,314,309,306,0
302,317,310,308,0
304,320,309,310,0
304,321,309,310,0
305,320,308,310,0
304,317,306,310,0
303,314,304,309,0
301,312,303,309,0
300,310,302,308,0
298,310,303,307,0
296,309,303,305,0
296,305,303,304,0
296,299,303,304,0
297,291,304,304,0
297,281,304,305,0
296,266,304,304,0
295,249,303,305,0
296,245,303,307,0
299,259,304,312,0
305,282,306,319,0
312,304,308,325,0
318,319,311,328,0
320,325,313,330,0
317,324,315,329,0
312,320,316,327,0
307,315,317,324,0
302,311,316,320,0
298,309,313,316,0
296,308,311,313,0
293,305,308,311,0
290,300,306,311,0
290,296,305,311,0
291,297,304,310,0
293,298,304,307,0
296,299,304,302,0
298,298,304,297,0
300,296,304,294,0
301,297,304,291,0
302,300,306,289,0
303,304,307,289,0
302,309,307,290,0
300,318,307,290,0
297,330,307,292,0
297,339,307,293,0
296,342,308,294,0
296,337,308,296,0
298,327,309,299,0
303,316,309,303,0
308,305,310,307,0
313,298,310,310,0
315,297,309,312,0
316,298,308,312,0
316,298,307,311,0
317,300,306,309,0
318,303,305,308,0
320,306,304,307,0
322,308,304,306,0
324,308,303,305,0
322,307,303,305,0
319,306,304,304,0
314,302,305,305,0
311,298,307,306,0
307,290,309,309,0
305,279,311,312,0
303,265,314,314,0
301,253,315,316,0
298,244,317,316,0
297,240,318,316,0
298,250,320,317,0
300,266,320,319,0
302,286,319,321,0
303,304,317,323,0
304,316,315,324,0
304,321,313,323,0
304,321,311,321,0
303,318,309,316,0
301,314,306,311,0
300,312,304,306,0
300,314,303,304,0
301,318,303,305,0
304,321,304,306,0
308,324,306,309,0
311,325,307,311,0
313,322,309,312,0
313,315,310,311,0
313,308,310,310,0
312,308,310,307,0
311,312,309,305,0
310,318,309,304,0
309,322,310,305,0
307,323,310,307,0
305,319,309,308,0
302,314,309,308,0
300,308,310,307,0
298,305,311,307,0
297,304,312,308,0
298,308,313,308,0
299,314,313,309,0
299,319,312,309,0
298,320,311,309,0
296,315,309,309,0
295,303,307,311,0
295,284,305,313,0
296,265,305,316,0
299,259,306,319,0
304,268,309,322,0
311,286,311,323,0
315,303,312,323,0
317,315,312,322,0
317,323,312,320,0
317,330,311,317,0
315,335,309,314,0
313,337,310,311,0
310,334,313,308,0
308,330,317,304,0
307,329,320,301,0
306,326,320,300,0
306,321,320,302,0
306,315,316,305,0
306,310,312,309,0
306,305,308,313,0
306,299,306,316,0
305,291,306,319,0
305,284,307,319,0
303,280,308,317,0
302,279,308,315,0
301,286,308,313,0
302,303,308,313,0
302,316,309,313,0
302,318,309,311,0
301,310,307,310,0
300,298,306,309,0
300,284,306,309,0
299,276,306,310,0
297,283,306,312,0
294,297,308,314,0
294,311,309,317,0
295,323,310,318,0
298,330,311,320,0
301,331,310,322,0
303,326,310,323,0
303,317,308,325,0
302,306,307,326,0
301,294,306,326,0
299,281,304,326,0
297,269,303,327,0
295,263,303,329,0
296,265,303,329,0
297,276,303,327,0
299,291,303,322,0
302,300,303,315,0
303,302,303,308,0
305,304,303,300,0
307,311,303,295,0
308,322,303,292,0
308,332,303,291,0
308,338,302,293,0
308,336,301,296,0
308,327,301,300,0
310,313,302,304,0
312,299,304,308,0
314,294,306,311,0
314,297,309,315,0
312,301,310,319,0
310,304,312,322,0
307,308,312,323,0
304,311,312,322,0
302,314,311,319,0
300,320,310,316,0
298,329,309,313,0
298,334,307,312,0
297,328,307,313,0
298,316,306,314,0
298,304,307,317,0
300,294,308,320,0
301,288,309,322,0
304,285,309,322,0
305,283,309,320,0
307,284,308,316,0
307,288,308,313,0
308,294,307,311,0
308,304,307,310,0
308,316,307,310,0
308,327,307,311,0
308,338,307,311,0
307,345,306,310,0
305,343,305,308,0
304,331,304,306,0
304,313,305,304,0
307,294,306,302,0
312,280,306,299,0
317,273,306,297,0
315,276,305,296,0
307,288,302,296,0
297,304,299,296,0
291,319,298,298,0
290,329,298,299,0
293,335,298,302,0
296,333,298,304,0
297,320,299,306,0
296,301,300,306,0
294,278,301,305,0
292,257,301,303,0
292,247,300,300,0
293,259,301,300,0
297,289,303,302,0
301,316,305,306,0
306,328,307,310,0
309,330,308,315,0
310,331,308,320,0
311,334,308,323,0
312,336,307,325,0
314,338,306,327,0
315,339,306,327,0
312,340,306,325,0
309,343,305,321,0
306,344,303,317,0
303,343,302,313,0
303,340,300,308,0
302,335,299,304,0
301,332,298,300,0
301,327,298,299,0
300,323,298,299,0
300,318,298,302,0
299,308,299,307,0
299,298,299,311,0
299,290,300,311,0
300,285,301,310,0
302,285,303,308,0
305,293,305,307,0
309,302,308,309,0
312,310,309,312,0
313,312,310,316,0
313,310,311,320,0
312,308,312,322,0
312,307,311,323,0
312,310,309,322,0
313,316,306,320,0
313,322,303,317,0
314,325,302,314,0
314,325,302,313,0
313,320,303,312,0
312,313,306,311,0
311,307,311,309,0
310,300,315,308,0
310,296,316,307,0
310,292,316,305,0
310,292,313,304,0
310,299,309,302,0
307,306,305,303,0
302,307,302,304,0
298,300,301,305,0
295,289,301,306,0
295,280,301,306,0
297,276,301,306,0
300,279,302,307,0
304,285,302,308,0
307,292,302,311,0
309,302,302,315,0
311,315,303,319,0
312,326,305,322,0
312,334,306,326,0
313,337,308,329,0
314,338,309,332,0
316,337,310,336,0
316,335,311,338,0
316,333,312,339,0
316,332,311,338,0
314,332,310,335,0
312,332,308,331,0
309,333,306,326,0
307,331,304,320,0
305,326,303,313,0
304,320,303,308,0
303,315,304,305,0
304,313,304,303,0
306,313,303,301,0
308,313,301,299,0
309,313,300,299,0
308,312,298,299,0
309,308,296,300,0
310,306,296,301,0
311,305,297,302,0
313,301,298,302,0
314,294,300,303,0
311,285,302,303,0
306,283,303,303,0
303,291,305,303,0
302,307,306,304,0
303,321,308,307,0
305,327,308,309,0
306,326,309,312,0
307,318,308,314,0
307,306,308,315,0
307,291,308,317,0
306,274,307,317,0
306,261,305,318,0
306,255,304,319,0
307,260,303,321,0
309,278,303,323,0
312,304,303,326,0
313,329,305,327,0
313,347,306,328,0
312,356,308,329,0
312,358,310,330,0
312,356,310,330,0
312,352,310,331,0
312,345,310,330,0
312,339,310,330,0
311,335,311,329,0
311,331,312,325,0
310,326,312,320,0
309,321,311,314,0
307,316,310,308,0
306,313,309,303,0
304,309,307,300,0
304,304,307,297,0
307,299,306,295,0
311,290,306,294,0
313,276,305,293,0
314,266,304,293,0
313,266,305,295,0
309,275,305,300,0
304,287,307,308,0
300,297,308,317,0
299,305,309,325,0
299,312,310,331,0
300,322,310,333,0
300,333,310,332,0
301,341,310,329,0
300,347,309,322,0
299,347,308,315,0
297,339,307,307,0
296,328,307,301,0
296,317,307,297,0
299,305,307,296,0
301,291,308,295,0
304,279,308,294,0
306,274,308,295,0
308,276,308,297,0
310,281,310,299,0
311,286,310,301,0
311,290,310,303,0
312,294,310,306,0
311,299,311,308,0
310,302,311,309,0
308,300,311,309,0
305,300,311,308,0
303,303,311,306,0
302,305,311,303,0
302,305,311,299,0
302,305,311,296,0
302,304,310,294,0
302,297,310,294,0
302,286,309,293,0
301,282,309,293,0
302,290,308,294,0
306,305,309,296,0
310,318,309,299,0
315,326,310,302,0
318,329,312,304,0
319,328,313,306,0
319,327,314,309,0
316,325,315,311,0
311,323,315,313,0
304,322,316,315,0
300,321,317,317,0
298,318,317,317,0
298,315,316,316,0
298,314,315,314,0
298,319,313,311,0
297,328,311,310,0
298,335,310,310,0
299,337,309,310,0
300,335,309,311,0
301,330,308,311,0
301,324,308,311,0
301,317,308,309,0
301,306,308,308,0
302,296,308,307,0
304,290,309,307,0
305,291,309,309,0
306,294,310,310,0
307,296,311,311,0
307,295,312,311,0
306,292,313,310,0
306,290,314,309,0
306,289,315,309,0
306,289,316,308,0
307,288,316,307,0
307,287,317,305,0
307,289,317,304,0
306,292,316,302,0
305,288,314,300,0
304,279,311,299,0
304,267,308,298,0
304,258,305,297,0
303,256,303,297,0
303,265,302,296,0
304,286,302,297,0
306,307,303,299,0
308,318,305,302,0
309,323,307,306,0
311,328,309,311,0
312,334,311,314,0
312,337,312,316,0
312,339,313,318,0
311,337,313,318,0
310,335,313,317,0
310,332,312,314,0
310,328,311,311,0
309,323,310,308,0
306,317,312,306,0
304,311,314,304,0
303,304,316,303,0
302,300,317,303,0
303,298,316,302,0
304,300,313,302,0
305,302,310,303,0
307,308,309,305,0
309,313,309,307,0
310,318,309,309,0
309,320,310,311,0
309,322,311,312,0
308,322,311,314,0
308,318,310,316,0
308,314,308,318,0
308,311,306,319,0
308,311,304,319,0
307,312,302,318,0
307,312,300,318,0
308,311,299,318,0
309,311,297,318,0
307,311,296,316,0
303,309,295,312,0
299,309,295,308,0
297,312,295,307,0
298,315,297,310,0
302,314,299,316,0
306,310,302,324,0
310,305,305,331,0
313,301,307,336,0
314,299,309,337,0
313,302,311,336,0
311,308,311,332,0
310,314,311,326,0
309,317,309,318,0
310,317,307,310,0
311,314,304,302,0
313,308,302,297,0
313,299,301,292,0
311,293,299,289,0
309,293,297,287,0
307,295,295,286,0
306,296,295,287,0
306,294,295,289,0
306,292,294,292,0
307,295,295,296,0
308,302,295,300,0
309,313,297,304,0
310,325,299,308,0
311,335,302,311,0
314,341,304,314,0
318,343,307,315,0
319,342,308,315,0
318,341,308,313,0
316,341,307,311,0
314,341,307,311,0
311,342,307,310,0
308,343,307,310,0
307,341,307,309,0
309,338,307,308,0
311,333,307,307,0
313,326,307,305,0
314,321,307,304,0
315,318,307,303,0
316,318,307,301,0
316,317,307,301,0
317,313,305,301,0
318,307,304,303,0
320,299,304,307,0
323,290,305,311,0
327,284,307,315,0
331,288,310,319,0
334,296,311,322,0
331,302,313,323,0
321,306,314,323,0
312,311,314,321,0
306,313,314,319,0
304,313,314,318,0
304,315,313,314,0
306,319,312,312,0
307,322,311,309,0
307,319,311,306,0
306,315,311,304,0
307,310,311,302,0
308,306,311,301,0
309,300,311,301,0
311,289,311,301,0
312,277,311,301,0
313,270,312,302,0
313,268,314,303,0
313,271,317,306,0
313,277,319,311,0
312,288,321,317,0
311,300,320,325,0
309,310,319,331,0
309,316,316,335,0
309,319,315,335,0
311,321,313,331,0
311,323,311,324,0
309,329,308,316,0
306,334,306,307,0
303,336,305,299,0
302,337,305,294,0
303,337,305,289,0
304,336,306,286,0
304,331,307,284,0
304,325,308,285,0
306,317,308,288,0
307,310,309,293,0
310,303,309,300,0
313,299,310,305,0
315,297,311,310,0
315,297,313,313,0
315,299,313,314,0
313,302,313,313,0
312,309,313,311,0
310,317,312,308,0
308,323,310,307,0
306,328,309,307,0
304,331,309,308,0
302,334,309,309,0
300,334,308,310,0
298,332,308,311,0
297,323,308,312,0
297,307,307,311,0
296,286,307,309,0
294,263,306,305,0
290,242,305,300,0
287,226,305,296,0
287,228,306,295,0
291,248,309,297,0
296,276,311,299,0
304,303,313,302,0
312,326,315,303,0
320,344,316,305,0
325,355,315,307,0
326,360,315,310,0
325,360,314,311,0
322,355,313,312,0
319,349,312,313,0
317,342,311,313,0
314,337,311,313,0
312,335,310,312,0
311,333,309,312,0
310,328,307,311,0
310,322,306,311,0
310,314,306,311,0
311,307,306,310,0
311,306,306,310,0
312,310,308,310,0
312,316,310,310,0
312,321,311,309,0
311,322,313,308,0
309,319,313,307,0
307,314,312,306,0
304,308,310,304,0
302,298,308,302,0
300,279,306,302,0
300,259,306,302,0
303,254,306,305,0
305,268,308,308,0
308,294,311,311,0
310,319,313,313,0
311,334,314,313,0
311,338,314,313,0
311,332,313,312,0
312,319,312,311,0
313,304,312,309,0
315,290,312,308,0
318,282,313,309,0
319,285,314,310,0
321,296,313,310,0
323,307,312,309,0
323,317,310,307,0
319,323,309,303,0
315,327,308,299,0
310,328,308,296,0
299,327,309,296,0
289,324,310,299,0
283,319,312,302,0
283,314,312,305,0
286,311,311,307,0
290,311,309,310,0
295,308,308,311,0
298,303,307,313,0
301,299,307,314,0
303,297,307,314,0
304,297,307,312,0
305,297,308,311,0
306,297,309,310,0
307,295,310,310,0
308,292,310,311,0
308,289,309,311,0
308,290,309,312,0
308,291,308,313,0
308,291,308,314,0
307,289,307,314,0
306,290,307,314,0
307,295,306,313,0
308,306,306,312,0
310,315,306,311,0
311,322,306,310,0
313,323,307,308,0
314,320,307,307,0
313,311,306,304,0
312,301,306,303,0
311,294,305,302,0
309,291,306,302,0
308,292,306,303,0
307,297,308,305,0
307,302,309,308,0
307,309,310,313,0
308,317,311,320,0
310,325,311,326,0
310,333,311,330,0
311,339,311,331,0
311,343,310,329,0
311,343,310,324,0
311,339,310,316,0
311,332,311,308,0
311,322,312,301,0
309,309,313,295,0
307,298,312,293,0
305,292,311,291,0
304,291,310,292,0
303,294,308,293,0
303,301,305,296,0
303,312,303,297,0
303,323,302,298,0
303,329,302,297,0
304,331,304,298,0
305,331,305,299,0
307,330,307,302,0
309,325,309,304,0
312,320,311,307,0
315,315,312,309,0
316,312,312,311,0
315,307,312,314,0
315,304,312,318,0
313,302,312,322,0
312,302,312,326,0
312,302,312,329,0
311,300,312,331,0
311,295,311,330,0
310,288,310,327,0
309,281,310,322,0
308,275,309,317,0
308,272,309,314,0
309,274,309,312,0
311,280,310,312,0
313,288,311,314,0
314,295,311,315,0
313,299,310,315,0
310,300,309,313,0
306,298,307,309,0
303,293,305,305,0
300,291,304,301,0
299,290,303,299,0
299,291,305,298,0
302,294,308,299,0
304,297,310,303,0
307,302,312,306,0
309,311,313,308,0
311,319,312,308,0
312,323,312,307,0
313,324,311,305,0
313,321,310,304,0
313,318,309,304,0
313,313,308,303,0
313,309,308,303,0
313,309,308,303,0
313,311,308,303,0
312,315,309,304,0
311,319,309,306,0
309,321,309,308,0
307,320,309,309,0
306,318,309,308,0
306,314,309,307,0
305,311,308,306,0
304,310,307,307,0
304,313,306,311,0
305,322,306,317,0
305,333,305,321,0
304,343,305,323,0
302,349,304,324,0
300,348,304,324,0
299,341,305,323,0
300,330,306,322,0
302,318,307,322,0
305,307,309,323,0
307,299,311,325,0
309,294,312,325,0
311,289,313,325,0
312,284,314,322,0
312,279,314,319,0
311,278,313,314,0
308,283,312,308,0
305,293,310,301,0
303,305,309,296,0
301,316,307,292,0
300,324,306,290,0
299,325,306,290,0
299,319,306,292,0
299,308,307,297,0
300,299,307,305,0
301,296,308,316,0
302,299,310,328,0
304,305,311,339,0
305,312,312,345,0
306,314,312,345,0
307,311,313,341,0
307,305,315,335,0
306,301,317,328,0
306,300,318,321,0
306,303,318,314,0
305,305,316,306,0
304,306,312,299,0
302,306,307,292,0
299,303,303,286,0
297,298,299,282,0
295,288,298,279,0
294,277,296,277,0
293,271,296,276,0
295,272,296,277,0
297,280,297,279,0
299,289,298,282,0
301,297,299,285,0
303,300,300,289,0
304,302,301,293,0
307,303,303,298,0
308,303,305,304,0
309,302,306,311,0
307,300,307,318,0
304,300,306,324,0
301,302,305,328,0
299,307,305,328,0
297,315,305,326,0
298,324,305,321,0
301,333,305,316,0
305,338,304,311,0
309,338,304,307,0
309,332,303,304,0
307,323,303,303,0
307,312,305,304,0
306,300,306,308,0
304,290,308,312,0
303,285,309,317,0
302,281,310,321,0
301,279,311,322,0
301,281,311,322,0
302,286,311,320,0
303,292,310,315,0
302,296,309,309,0
301,296,309,303,0
300,292,310,299,0
299,290,310,297,0
298,298,310,296,0
298,314,309,296,0
298,329,309,296,0
299,339,308,295,0
300,341,307,295,0
301,334,307,295,0
301,322,307,296,0
303,308,307,297,0
304,299,308,299,0
304,297,308,303,0
305,302,310,308,0
307,310,311,316,0
309,315,313,322,0
309,317,314,328,0
308,317,315,332,0
305,316,316,334,0
303,319,315,335,0
300,322,314,334,0
299,323,312,329,0
300,324,311,323,0
302,322,310,318,0
305,320,309,314,0
306,316,309,312,0
307,313,310,311,0
307,309,310,311,0
306,308,310,311,0
305,307,309,311,0
304,303,308,310,0
304,298,305,309,0
305,294,303,307,0
306,290,301,304,0
307,283,300,300,0
306,274,301,296,0
305,264,301,293,0
304,258,302,291,0
303,256,303,290,0
302,259,304,289,0
300,268,304,290,0
300,282,306,293,0
301,298,307,296,0
302,312,308,299,0
303,323,307,300,0
304,332,307,299,0
305,337,307,299,0
307,338,307,298,0
307,334,308,298,0
307,328,308,299,0
307,322,309,301,0
308,316,309,304,0
308,313,309,308,0
309,309,308,312,0
309,305,308,315,0
310,303,308,317,0
310,302,308,317,0
310,304,309,317,0
310,309,309,316,0
310,315,310,315,0
310,320,310,314,0
309,322,309,315,0
309,320,308,318,0
308,314,308,322,0
308,303,308,325,0
307,294,308,326,0
305,293,309,323,0
305,301,309,320,0
305,310,310,316,0
307,320,309,312,0
309,329,307,308,0
310,337,306,305,0
314,342,305,301,0
319,344,303,299,0
327,346,302,298,0
332,346,301,299,0
328,344,302,300,0
319,339,304,302,0
311,331,307,303,0
306,323,309,304,0
306,320,311,305,0
307,320,311,306,0
310,320,311,308,0
311,320,311,310,0
310,316,311,312,0
305,310,311,312,0
299,295,311,312,0
293,275,311,313,0
292,263,312,315,0
295,262,313,319,0
298,270,313,323,0
301,277,312,326,0
301,281,311,329,0
300,279,310,331,0
301,271,309,333,0
302,259,309,333,0
304,247,310,330,0
308,244,311,325,0
312,256,312,318,0
314,281,313,313,0
315,311,313,309,0
314,336,313,307,0
312,353,312,305,0
310,363,312,303,0
309,365,309,301,0
308,361,306,301,0
308,353,303,302,0
308,343,302,304,0
309,335,301,305,0
308,329,301,305,0
307,324,301,305,0
305,318,301,304,0
304,310,300,302,0
303,305,299,300,0
303,304,298,298,0
304,302,298,297,0
304,299,300,296,0
305,297,301,297,0
306,299,303,299,0
307,301,304,302,0
307,302,305,304,0
308,305,306,307,0
309,307,307,309,0
310,311,308,311,0
311,316,308,312,0
312,320,309,314,0
311,323,309,316,0
310,325,309,316,0
309,324,309,317,0
307,322,310,317,0
305,319,312,316,0
304,314,313,313,0
303,306,313,310,0
301,299,312,308,0
299,299,311,307,0
297,303,310,308,0
297,304,309,310,0
299,303,308,310,0
303,301,308,309,0
307,301,307,307,0
310,298,305,304,0
311,296,303,301,0
312,295,302,298,0
311,295,302,296,0
311,295,303,295,0
310,295,303,294,0
309,295,303,294,0
307,296,303,295,0
307,298,304,297,0
308,301,305,300,0
309,305,305,301,0
310,313,306,302,0
309,321,306,304,0
309,326,307,305,0
306,325,307,306,0
304,319,306,306,0
303,312,305,308,0
302,307,306,313,0
305,307,307,320,0
308,313,309,327,0
310,321,310,332,0
311,330,311,334,0
311,335,311,335,0
312,337,312,335,0
311,335,313,334,0
311,330,313,332,0
309,320,313,328,0
309,307,312,325,0
308,291,311,321,0
308,275,310,317,0
308,262,309,313,0
309,255,308,307,0
312,263,306,303,0
312,280,305,299,0
309,295,303,297,0
306,300,302,296,0
304,302,302,295,0
303,304,303,294,0
303,309,304,293,0
305,318,306,293,0
308,328,307,293,0
310,337,307,295,0
311,344,307,299,0
311,348,307,302,0
311,348,306,305,0
309,346,306,307,0
308,341,306,307,0
307,332,307,307,0
305,321,308,304,0
304,307,308,302,0
303,293,308,301,0
302,283,308,299,0
302,284,307,299,0
303,296,307,298,0
305,312,307,298,0
306,325,307,297,0
306,331,307,297,0
305,332,307,297,0
305,329,307,297,0
304,319,308,297,0
303,310,308,299,0
303,304,309,302,0
304,300,309,304,0
305,300,310,306,0
305,305,310,307,0
304,313,310,309,0
305,318,310,311,0
306,321,309,312,0
307,324,308,312,0
308,324,307,312,0
307,322,306,311,0
306,317,305,310,0
304,309,304,309,0
303,295,303,307,0
301,283,303,304,0
302,273,302,303,0
304,269,303,303,0
308,274,304,306,0
313,285,306,309,0
316,292,309,313,0
318,293,310,317,0
317,291,310,320,0
316,288,309,322,0
314,286,309,321,0
312,289,310,319,0
309,290,310,315,0
306,288,309,311,0
303,286,309,307,0
300,285,307,306,0
298,284,306,305,0
296,285,304,304,0
295,291,303,302,0
297,303,302,301,0
299,318,302,301,0
303,332,302,302,0
306,341,303,303,0
310,346,304,304,0
312,348,305,304,0
313,350,307,305,0
313,350,309,306,0
312,347,310,309,0
311,341,311,311,0
310,333,311,314,0
309,324,311,316,0
309,313,311,318,0
310,298,310,318,0
311,284,309,318,0
314,277,308,315,0
317,277,307,310,0
317,282,305,305,0
311,290,304,301,0
302,300,302,299,0
295,309,302,300,0
293,311,303,302,0
297,305,304,305,0
303,298,305,307,0
308,297,305,309,0
311,302,305,310,0
313,309,306,310,0
314,317,306,310,0
315,327,306,311,0
315,336,307,313,0
314,340,307,315,0
310,335,307,317,0
304,327,308,317,0
298,316,309,316,0
295,306,310,314,0
294,298,312,312,0
296,295,314,311,0
298,293,315,311,0
302,292,317,311,0
305,289,316,312,0
307,287,313,309,0
308,286,309,305,0
309,288,304,300,0
309,292,301,297,0
307,296,299,295,0
305,301,299,296,0
305,311,301,300,0
307,321,304,305,0
309,327,307,309,0
309,328,309,313,0
309,328,310,315,0
308,327,310,315,0
306,326,309,315,0
305,327,308,313,0
304,332,307,312,0
304,334,307,311,0
304,329,305,308,0
304,316,304,304,0
303,303,302,300,0
303,293,301,297,0
303,288,299,294,0
304,288,299,293,0
305,295,299,293,0
307,304,300,294,0
309,305,301,295,0
310,295,302,297,0
309,280,304,298,0
308,271,306,299,0
306,276,307,301,0
302,293,307,301,0
299,313,305,300,0
297,328,304,300,0
298,336,303,299,0
301,337,303,299,0
305,333,304,301,0
309,321,306,304,0
311,307,308,308,0
312,296,308,310,0
312,293,309,310,0
311,298,308,310,0
311,306,308,309,0
312,312,308,310,0
312,317,308,311,0
312,322,309,315,0
313,326,309,319,0
314,330,308,324,0
313,333,308,328,0
312,336,306,331,0
311,338,305,331,0
309,341,303,329,0
307,340,301,325,0
306,333,299,319,0
305,319,297,313,0
307,305,297,310,0
309,297,296,309,0
312,291,297,309,0
313,288,297,308,0
313,286,297,307,0
312,286,298,305,0
311,288,299,305,0
311,291,299,305,0
311,294,300,307,0
312,299,301,309,0
313,306,302,311,0
314,314,303,313,0
314,319,304,314,0
313,323,305,314,0
312,326,306,313,0
312,325,307,312,0
311,320,307,312,0
310,314,307,312,0
310,308,306,310,0
308,303,305,306,0
307,300,303,303,0
306,299,302,301,0
305,298,302,301,0
304,299,302,300,0
302,301,301,298,0
301,307,301,297,0
300,307,300,295,0
300,300,300,295,0
301,286,300,298,0
302,273,301,301,0
304,270,302,307,0
306,275,303,313,0
310,287,305,322,0
316,301,307,332,0
318,312,308,340,0
315,318,309,343,0
311,319,309,344,0
308,319,308,341,0
307,320,307,335,0
311,322,306,329,0
317,323,305,323,0
317,321,304,318,0
309,318,304,314,0
301,315,304,311,0
296,316,305,310,0
294,318,306,311,0
294,321,306,311,0
295,323,305,311,0
296,325,305,309,0
298,325,305,308,0
299,326,305,307,0
300,328,306,307,0
301,326,307,307,0
301,321,307,308,0
301,312,308,309,0
302,303,308,310,0
302,293,308,309,0
302,282,306,307,0
303,275,305,306,0
303,277,304,306,0
302,285,303,306,0
299,294,301,304,0
296,301,300,301,0
293,307,299,299,0
292,311,298,297,0
292,312,298,297,0
292,314,297,297,0
295,317,298,300,0
299,315,299,303,0
304,309,300,306,0
308,304,302,309,0
311,301,303,310,0
313,297,304,309,0
314,296,305,308,0
314,300,306,308,0
313,305,306,308,0
311,310,306,308,0
310,314,307,308,0
307,317,309,309,0
305,319,310,311,0
302,319,310,314,0
300,314,310,317,0
299,306,308,318,0
297,294,307,316,0
296,280,305,313,0
296,267,302,310,0
298,260,301,307,0
302,264,300,305,0
307,280,299,303,0
312,299,300,300,0
315,316,299,299,0
317,327,299,298,0
318,331,299,297,0
318,330,300,297,0
318,325,300,299,0
316,319,300,300,0
315,313,300,303,0
313,312,301,307,0
312,318,302,310,0
311,325,302,310,0
311,329,302,309,0
311,327,301,307,0
311,322,301,306,0
311,314,301,305,0
310,306,301,304,0
308,304,301,302,0
306,309,301,302,0
304,314,302,303,0
303,317,303,305,0
303,318,303,307,0
303,320,303,310,0
304,323,304,311,0
305,331,303,313,0
306,339,303,314,0
308,342,304,315,0
310,338,304,316,0
311,334,304,315,0
312,328,304,313,0
309,318,303,312,0
304,303,303,311,0
300,286,303,310,0
296,274,302,309,0
295,269,302,308,0
294,265,302,306,0
294,263,302,304,0
294,264,301,302,0
296,265,302,304,0
298,266,302,310,0
299,268,303,318,0
300,278,304,326,0
301,291,305,331,0
303,306,306,336,0
306,318,309,340,0
310,323,311,344,0
314,323,312,344,0
316,323,311,341,0
316,324,310,335,0
313,324,308,329,0
310,323,306,322,0
308,318,304,315,0
306,311,303,307,0
305,306,302,300,0
305,306,301,294,0
305,310,301,290,0
303,316,301,288,0
301,321,301,287,0
299,325,300,285,0
298,325,298,283,0
300,322,297,283,0
308,319,297,283,0
316,317,297,284,0
320,313,297,286,0
315,308,297,289,0
306,304,299,292,0
299,302,301,295,0
296,302,302,298,0
297,305,304,301,0
300,309,305,303,0
302,317,306,304,0
303,325,306,304,0
303,328,306,305,0
303,328,306,306,0
303,325,306,308,0
304,323,305,309,0
305,320,304,310,0
305,320,303,309,0
306,321,302,309,0
305,321,302,309,0
305,319,302,308,0
305,314,301,309,0
305,307,302,310,0
307,301,303,311,0
309,298,304,312,0
311,297,305,311,0
312,296,306,310,0
312,296,306,307,0
311,294,305,305,0
310,290,305,303,0
310,285,304,303,0
309,285,304,303,0
308,289,304,303,0
308,295,303,302,0
307,298,303,301,0
305,300,302,299,0
304,299,301,297,0
303,298,300,296,0
302,298,299,297,0
302,300,299,299,0
302,304,299,302,0
303,314,299,307,0
305,329,300,311,0
307,339,301,315,0
310,340,304,318,0
313,334,307,320,0
314,328,309,320,0
314,324,311,318,0
313,321,312,316,0
311,319,311,314,0
310,318,310,312,0
309,316,308,310,0
308,316,306,309,0
306,316,304,308,0
304,317,304,308,0
303,316,303,307,0
301,315,303,305,0
300,318,303,304,0
299,322,304,303,0
299,326,305,302,0
299,329,306,301,0
300,330,307,301,0
301,322,308,303,0
302,310,309,305,0
303,299,310,308,0
305,294,310,310,0
307,295,310,311,0
310,300,309,312,0
313,303,307,312,0
315,300,306,311,0
313,293,305,312,0
308,286,305,314,0
304,282,304,315,0
301,285,304,317,0
300,291,304,319,0
300,297,305,319,0
301,303,305,319,0
303,308,305,316,0
304,310,304,314,0
306,311,303,313,0
307,310,303,312,0
305,307,303,311,0
302,304,302,309,0
298,300,302,308,0
296,296,303,308,0
295,293,304,309,0
295,290,305,310,0
296,290,307,312,0
297,294,309,314,0
298,300,310,317,0
299,305,311,322,0
300,310,310,326,0
300,315,309,328,0
300,318,307,329,0
299,319,305,327,0
299,317,303,324,0
301,316,302,321,0
303,314,301,317,0
304,310,300,313,0
304,304,300,309,0
303,300,299,303,0
302,299,298,299,0
301,301,298,294,0
299,305,299,291,0
299,312,300,288,0
298,318,301,285,0
297,320,302,285,0
296,317,303,287,0
296,312,304,293,0
298,312,305,298,0
299,319,306,301,0
303,327,306,302,0
306,330,306,301,0
309,330,306,301,0
310,329,306,302,0
310,328,306,303,0
310,329,306,303,0
309,328,305,304,0
308,328,305,304,0
308,327,304,304,0
307,326,302,302,0
306,323,300,300,0
306,321,299,298,0
306,318,299,296,0
306,313,299,293,0
306,304,299,293,0
306,296,300,292,0
306,288,301,292,0
307,283,301,293,0
308,282,301,293,0
308,283,301,294,0
309,284,302,294,0
309,285,303,296,0
310,290,303,298,0
310,302,304,302,0
309,316,305,305,0
307,328,305,307,0
306,337,305,308,0
306,341,305,309,0
306,337,304,309,0
306,330,304,310,0
308,321,304,311,0
310,312,305,311,0
311,303,306,311,0
311,294,308,312,0
310,286,308,315,0
309,280,309,319,0
307,277,309,322,0
307,278,308,324,0
307,282,308,324,0
307,288,307,323,0
307,294,306,320,0
307,302,306,317,0
308,310,306,313,0
309,316,307,308,0
312,319,307,303,0
315,320,307,299,0
318,318,307,297,0
320,312,306,297,0
323,305,305,299,0
326,301,304,303,0
325,297,304,307,0
319,294,306,311,0
314,293,308,315,0
310,295,310,318,0
309,299,310,319,0
307,306,311,319,0
307,314,311,316,0
307,319,310,312,0
308,318,308,309,0
308,315,306,306,0
306,312,304,305,0
303,310,302,305,0
301,310,301,305,0
300,308,300,306,0
300,303,300,306,0
300,294,300,306,0
300,286,300,306,0
299,278,300,306,0
300,276,300,308,0
301,276,301,312,0
303,277,302,316,0
305,280,303,319,0
308,285,303,319,0
310,295,304,315,0
311,309,303,311,0
312,321,302,306,0
311,329,301,300,0
310,331,301,295,0
309,328,301,291,0
308,320,300,287,0
307,313,300,284,0
305,310,300,281,0
302,310,299,280,0
300,310,298,280,0
299,312,298,285,0
299,315,299,293,0
301,319,301,301,0
303,318,301,309,0
305,315,302,315,0
305,311,302,318,0
305,310,303,319,0
307,310,303,318,0
308,311,305,315,0
310,310,306,312,0
310,308,306,308,0
311,305,306,305,0
309,301,307,303,0
307,296,306,301,0
305,290,305,301,0
303,285,303,303,0
300,285,302,305,0
299,292,301,307,0
300,303,300,308,0
301,315,300,308,0
304,325,299,307,0
306,329,298,305,0
308,326,297,301,0
308,317,296,298,0
308,308,296,295,0
308,302,297,294,0
309,298,299,294,0
309,295,300,295,0
310,295,301,296,0
309,297,301,297,0
308,298,302,296,0
306,294,302,295,0
304,285,304,291,0
303,268,304,288,0
302,247,304,286,0
303,236,305,286,0
305,244,306,288,0
306,265,307,293,0
307,290,308,298,0
307,308,309,302,0
307,317,310,305,0
306,319,310,306,0
305,317,310,306,0
305,312,310,307,0
304,307,309,310,0
304,300,308,313,0
304,290,308,316,0
304,277,308,318,0
305,269,308,320,0
306,270,309,321,0
308,282,310,321,0
310,295,311,321,0
311,306,312,320,0
311,312,312,317,0
311,315,310,313,0
310,316,310,309,0
310,315,308,304,0
309,318,306,301,0
308,326,305,299,0
305,337,305,297,0
302,345,305,295,0
301,345,304,293,0
300,341,304,293,0
301,336,304,294,0
302,329,304,295,0
303,318,305,296,0
301,302,305,298,0
298,287,304,300,0
297,280,305,303,0
299,279,306,307,0
305,282,310,310,0
312,286,312,310,0
315,289,314,310,0
311,294,313,308,0
307,302,313,306,0
305,312,312,304,0
304,320,312,304,0
303,326,312,304,0
302,329,313,306,0
300,330,314,309,0
300,327,315,310,0
301,324,314,309,0
302,320,313,307,0
303,315,311,304,0
306,309,309,302,0
309,301,308,301,0
312,290,307,304,0
314,278,307,309,0
314,268,307,317,0
312,263,308,323,0
308,261,309,327,0
305,263,310,327,0
303,272,311,323,0
302,288,311,317,0
303,305,312,310,0
305,317,311,302,0
306,323,310,296,0
308,324,309,292,0
308,323,308,290,0
308,319,307,289,0
307,311,306,288,0
306,303,306,288,0
305,298,305,288,0
305,297,305,289,0
305,299,305,290,0
305,304,306,291,0
306,310,306,292,0
308,316,307,294,0
309,321,308,296,0
311,321,309,298,0
312,317,310,300,0
313,312,311,302,0
313,308,311,303,0
313,304,311,301,0
312,301,310,299,0
310,294,309,295,0
308,285,308,293,0
307,275,308,294,0
306,267,308,295,0
304,260,309,296,0
303,255,309,296,0
300,251,309,296,0
298,254,308,297,0
296,267,306,299,0
296,287,305,301,0
297,306,304,304,0
299,321,304,307,0
301,329,306,310,0
302,328,307,313,0
303,319,307,315,0
304,304,307,314,0
304,289,306,313,0
303,281,305,310,0
302,280,304,307,0
299,283,304,303,0
298,291,304,302,0
299,301,304,303,0
300,311,304,306,0
301,318,305,310,0
302,322,306,314,0
303,324,306,319,0
304,327,307,322,0
305,329,306,323,0
305,326,306,322,0
305,318,304,320,0
305,312,303,317,0
306,310,302,313,0
307,306,303,309,0
310,297,303,306,0
312,285,304,303,0
314,272,306,300,0
317,268,308,297,0
319,275,309,297,0
318,290,311,298,0
314,303,312,301,0
309,311,313,306,0
304,315,314,311,0
300,314,315,316,0
297,311,315,320,0
295,309,316,323,0
295,307,315,327,0
294,305,315,329,0
293,300,314,328,0
293,295,313,326,0
293,291,313,323,0
294,287,311,319,0
295,281,310,315,0
296,272,308,311,0
296,260,307,307,0
296,245,308,304,0
297,230,308,301,0
298,220,308,298,0
301,217,307,297,0
308,224,306,297,0
316,245,305,298,0
320,277,304,300,0
317,309,304,300,0
309,335,304,299,0
303,353,305,298,0
299,362,306,297,0
297,362,307,297,0
296,354,306,297,0
297,345,305,300,0
297,339,305,302,0
298,333,304,304,0
298,329,304,306,0
298,327,303,305,0
297,325,303,303,0
297,323,303,303,0
299,324,305,304,0
302,326,307,307,0
306,324,310,310,0
308,320,312,312,0
309,313,313,313,0
310,305,313,312,0
309,301,313,311,0
308,301,312,308,0
308,303,311,307,0
308,303,311,306,0
308,300,310,305,0
307,294,309,303,0
306,285,308,300,0
305,282,307,299,0
304,285,306,297,0
305,294,305,296,0
306,305,305,296,0
306,317,305,295,0
308,326,306,296,0
309,332,307,299,0
310,334,309,303,0
311,334,311,308,0
311,331,313,311,0
310,326,313,312,0
310,319,312,311,0
310,309,310,310,0
311,295,308,309,0
312,284,306,309,0
313,284,306,310,0
315,291,305,309,0
317,295,304,308,0
319,294,304,306,0
320,295,303,303,0
317,299,303,301,0
313,304,303,299,0
310,306,303,298,0
309,305,303,299,0
309,304,304,302,0
310,309,305,304,0
311,317,305,307,0
310,325,306,309,0
309,331,306,310,0
305,330,305,311,0
302,324,304,310,0
298,318,304,307,0
296,309,303,305,0
294,297,303,302,0
293,288,303,301,0
296,291,303,301,0
300,299,304,303,0
304,309,306,305,0
307,315,306,307,0
308,318,306,309,0
309,319,306,311,0
310,318,306,312,0
310,314,305,313,0
310,306,305,314,0
310,298,306,314,0
310,294,306,315,0
311,292,306,315,0
312,293,306,316,0
314,299,306,316,0
315,306,306,316,0
315,312,306,314,0
314,317,306,311,0
313,323,305,307,0
312,328,304,304,0
311,331,304,302,0
310,329,304,301,0
309,324,305,301,0
307,318,305,301,0
303,312,306,301,0
300,309,306,302,0
299,312,306,302,0
301,318,306,302,0
303,324,306,302,0
305,329,306,302,0
307,335,306,302,0
308,343,306,304,0
308,349,306,305,0
307,351,306,307,0
306,349,307,308,0
306,344,308,307,0
305,336,308,307,0
303,325,309,306,0
302,314,309,306,0
301,307,310,306,0
302,304,311,305,0
305,303,311,302,0
309,303,311,300,0
311,302,311,298,0
312,300,309,298,0
310,297,308,299,0
308,294,306,300,0
306,290,304,300,0
305,286,303,300,0
305,288,302,302,0
307,299,303,306,0
310,308,306,312,0
313,309,309,317,0
313,304,313,321,0
312,297,315,322,0
308,290,316,319,0
304,284,315,316,0
303,281,315,313,0
303,283,314,311,0
303,290,313,310,0
303,301,312,311,0
302,313,311,313,0
301,322,311,318,0
300,325,311,324,0
300,320,312,332,0
300,311,311,337,0
301,304,311,340,0
302,303,310,339,0
304,305,309,334,0
307,309,309,327,0
311,314,309,319,0
317,320,310,314,0
323,326,310,310,0
329,328,311,309,0
328,326,312,309,0
319,321,313,309,0
308,313,314,309,0
300,307,314,309,0
296,304,314,308,0
295,302,313,307,0
295,305,311,305,0
296,313,309,302,0
297,316,308,300,0
298,311,307,299,0
297,301,306,297,0
297,291,306,295,0
296,286,306,293,0
295,286,305,292,0
294,295,303,289,0
295,315,302,288,0
296,332,301,287,0
297,335,301,288,0
298,324,301,292,0
298,306,302,296,0
299,290,303,301,0
301,282,305,305,0
305,286,307,309,0
309,298,309,312,0
312,308,310,313,0
313,315,310,312,0
314,320,309,311,0
314,323,309,308,0
315,323,309,305,0
315,321,310,303,0
315,318,310,301,0
315,316,310,300,0
314,316,309,299,0
313,318,309,300,0
313,323,309,302,0
312,326,308,305,0
312,327,306,307,0
311,322,305,310,0
310,316,305,312,0
309,309,304,312,0
309,302,304,311,0
309,297,304,309,0
309,296,303,305,0
308,300,303,302,0
306,305,303,301,0
305,309,303,300,0
305,312,303,300,0
307,317,303,300,0
310,321,303,300,0
313,322,303,299,0
314,320,304,297,0
313,316,303,296,0
309,313,303,295,0
304,312,304,296,0
302,312,305,296,0
301,313,306,296,0
303,314,307,295,0
306,315,307,296,0
310,315,308,298,0
313,316,308,301,0
315,316,310,305,0
315,315,311,309,0
315,315,311,314,0
315,313,311,318,0
314,313,311,322,0
312,313,311,324,0
311,313,310,325,0
309,312,308,323,0
309,313,308,321,0
309,315,307,317,0
309,316,307,315,0
309,314,306,315,0
308,308,305,315,0
308,303,303,316,0
310,302,302,317,0
313,304,302,319,0
319,304,302,320,0
323,301,302,321,0
324,296,302,323,0
321,291,303,323,0
317,288,304,322,0
312,287,304,317,0
307,292,306,311,0
304,305,306,303,0
304,317,306,296,0
304,323,306,292,0
306,320,305,290,0
307,313,305,290,0
308,308,304,293,0
308,308,303,297,0
308,312,303,300,0
307,314,303,301,0
305,315,303,301,0
304,314,302,299,0
304,313,302,297,0
305,311,303,296,0
306,309,303,296,0
306,305,303,297,0
307,301,303,299,0
307,298,303,301,0
307,296,303,303,0
306,297,304,304,0
305,298,305,303,0
304,299,306,302,0
306,299,306,300,0
308,297,305,299,0
308,296,303,298,0
307,298,301,299,0
306,302,301,301,0
306,305,302,302,0
305,304,303,302,0
303,303,304,303,0
302,302,306,304,0
303,301,308,304,0
305,302,310,307,0
308,307,311,309,0
311,316,310,310,0
315,325,309,312,0
319,327,307,314,0
319,324,306,315,0
313,319,306,315,0
305,313,306,314,0
302,306,307,312,0
301,298,307,308,0
300,290,305,304,0
299,282,304,300,0
298,275,303,298,0
299,279,302,298,0
302,291,303,301,0
304,298,304,304,0
306,297,305,306,0
306,288,305,307,0
306,277,305,308,0
305,268,305,310,0
305,261,305,312,0
306,261,305,315,0
307,272,305,317,0
309,286,306,320,0
311,302,307,322,0
313,319,308,324,0
314,331,310,324,0
314,337,311,325,0
313,338,311,325,0
310,336,310,323,0
306,332,308,319,0
302,328,305,315,0
298,325,303,311,0
293,327,301,309,0
291,333,299,308,0
290,339,299,308,0
292,343,300,309,0
295,342,302,311,0
299,335,304,313,0
303,323,304,315,0
306,311,305,315,0
309,301,305,315,0
310,294,306,313,0
311,288,305,311,0
312,286,304,308,0
314,286,303,306,0
317,289,303,304,0
320,293,304,304,0
323,297,304,304,0
323,300,304,304,0
321,302,304,304,0
315,304,304,305,0
307,307,303,305,0
302,307,304,306,0
300,308,304,306,0
301,307,304,307,0
303,305,304,307,0
305,302,303,306,0
306,298,301,303,0
306,295,299,300,0
306,294,297,300,0
306,291,296,300,0
304,283,295,301,0
301,271,295,300,0
299,261,297,299,0
298,258,300,298,0
300,266,303,297,0
302,286,305,295,0
303,311,307,295,0
303,329,307,294,0
302,334,307,295,0
302,328,308,296,0
302,318,308,297,0
302,307,308,297,0
302,298,308,297,0
303,292,307,295,0
303,290,306,293,0
301,293,305,291,0
301,298,304,291,0
300,303,303,292,0
300,310,302,292,0
301,319,301,294,0
301,331,301,297,0
303,341,302,301,0
305,345,303,306,0
308,342,305,311,0
310,334,307,316,0
312,328,309,319,0
313,322,310,323,0
313,318,311,325,0
312,317,311,327,0
312,318,311,328,0
311,320,311,327,0
310,321,310,325,0
310,320,309,323,0
309,320,309,320,0
310,318,308,317,0
310,317,308,314,0
309,316,307,311,0
307,313,305,309,0
305,309,304,307,0
304,305,303,307,0
306,302,303,308,0
308,301,303,311,0
310,303,304,314,0
311,306,304,318,0
311,314,305,319,0
310,327,305,319,0
309,340,306,318,0
308,350,306,316,0
306,357,306,315,0
305,360,306,314,0
304,357,305,313,0
304,349,305,311,0
303,335,304,307,0
301,316,303,304,0
301,296,304,302,0
301,282,304,301,0
301,275,304,302,0
302,275,304,303,0
304,275,303,303,0
305,274,302,305,0
306,271,302,308,0
308,271,302,312,0
310,274,303,315,0
311,278,304,318,0
311,282,305,319,0
310,289,306,318,0
309,298,306,316,0
307,307,306,314,0
305,312,305,312,0
302,311,305,311,0
300,308,304,309,0
298,307,304,308,0
299,309,304,306,0
301,312,305,306,0
303,314,306,306,0
304,315,307,306,0
305,315,307,305,0
305,315,306,305,0
305,316,305,307,0
306,317,305,309,0
306,315,306,313,0
306,310,306,316,0
305,302,306,318,0
304,295,307,320,0
304,287,307,320,0
306,282,307,319,0
308,287,308,316,0
311,304,309,312,0
310,323,309,308,0
307,336,310,306,0
304,342,310,305,0
301,340,310,305,0
300,334,310,307,0
301,327,309,312,0
302,320,310,317,0
304,316,309,321,0
304,313,309,323,0
304,310,308,323,0
303,305,307,322,0
301,301,306,319,0
300,297,305,316,0
300,297,304,311,0
300,302,303,304,0
299,310,303,300,0
298,316,303,299,0
296,313,302,301,0
294,294,303,302,0
293,269,303,301,0
292,249,303,301,0
294,240,304,300,0
297,247,306,301,0
302,274,308,303,0
307,308,310,307,0
311,335,312,310,0
314,347,313,313,0
316,347,314,313,0
318,341,314,311,0
316,333,313,309,0
312,325,312,307,0
308,319,310,305,0
305,314,309,304,0
303,312,309,304,0
304,313,308,305,0
306,316,307,305,0
306,320,306,304,0
306,324,305,305,0
306,326,304,307,0
304,326,303,308,0
302,323,302,308,0
301,316,301,307,0
300,312,301,305,0
300,313,302,303,0
302,315,302,301,0
304,314,302,299,0
306,311,302,298,0
307,306,303,296,0
306,298,303,294,0
306,290,303,292,0
305,283,303,292,0
306,277,303,294,0
305,274,304,297,0
305,271,305,301,0
305,271,306,304,0
306,277,307,307,0
307,288,308,309,0
308,301,308,309,0
308,312,308,308,0
309,320,307,305,0
309,322,308,303,0
310,316,308,302,0
310,307,309,303,0
310,300,309,305,0
309,297,309,306,0
307,299,309,307,0
305,302,309,308,0
303,305,308,308,0
302,308,308,308,0
303,312,308,309,0
304,316,309,309,0
305,318,308,309,0
305,319,309,308,0
304,318,309,308,0
306,318,309,308,0
313,320,310,309,0
323,323,311,311,0
333,326,310,313,0
337,326,310,314,0
331,323,310,315,0
318,320,310,316,0
307,317,309,316,0
300,316,310,317,0
296,316,310,315,0
295,310,310,311,0
294,299,309,307,0
294,289,309,307,0
295,285,309,311,0
297,282,310,317,0
300,278,310,321,0
302,278,310,323,0
306,280,309,324,0
308,283,309,322,0
310,284,310,318,0
310,285,310,313,0
311,291,310,308,0
310,305,309,302,0
310,322,308,297,0
310,337,307,291,0
308,350,307,286,0
308,360,306,284,0
307,368,306,285,0
306,371,307,288,0
305,368,308,290,0
304,361,309,291,0
304,350,309,292,0
305,336,308,294,0
306,322,309,298,0
309,309,310,303,0
311,297,311,308,0
311,286,312,313,0
310,274,312,319,0
308,266,312,323,0
306,264,311,324,0
304,269,311,322,0
303,279,312,320,0
303,288,313,318,0
303,293,314,315,0
303,295,314,312,0
302,296,314,309,0
302,298,313,306,0
302,300,312,303,0
303,304,311,301,0
304,307,310,298,0
305,307,309,296,0
307,304,308,295,0
308,301,308,295,0
309,296,308,296,0
309,288,307,298,0
308,282,307,301,0
307,279,307,305,0
307,282,307,309,0
308,289,308,313,0
308,296,309,317,0
308,301,309,320,0
307,304,308,320,0
306,307,307,318,0
304,311,307,315,0
303,316,307,313,0
302,321,307,312,0
301,324,307,310,0
299,322,307,309,0
297,314,306,308,0
296,303,305,307,0
296,295,305,307,0
296,291,304,307,0
297,288,303,306,0
298,289,303,305,0
300,297,303,307,0
303,309,303,308,0
305,322,303,310,0
307,329,303,312,0
309,330,303,314,0
310,327,304,316,0
310,324,304,317,0
310,323,305,318,0
310,324,306,318,0
309,323,307,318,0
308,318,307,319,0
306,311,306,321,0
307,301,306,324,0
308,289,306,328,0
310,281,306,330,0
311,278,306,329,0
311,281,305,327,0
308,287,305,324,0
304,295,304,322,0
303,303,304,320,0
304,308,304,318,0
305,309,303,313,0
307,307,302,306,0
309,308,301,298,0
311,311,300,291,0
312,317,300,286,0
311,324,300,285,0
308,331,300,284,0
304,334,300,285,0
301,332,300,286,0
299,328,301,288,0
298,325,302,290,0
297,325,303,293,0
298,324,303,295,0
300,319,304,298,0
303,312,304,299,0
305,303,304,300,0
307,295,305,302,0
308,289,305,304,0
308,285,306,306,0
309,283,307,308,0
309,283,309,309,0
309,284,310,311,0
309,287,311,314,0
309,292,311,320,0
309,296,311,325,0
310,300,311,329,0
310,306,311,330,0
309,314,310,329,0
307,321,310,326,0
304,324,309,320,0
304,322,308,312,0
307,315,306,303,0
308,303,304,294,0
308,294,302,288,0
309,292,302,285,0
309,298,303,284,0
308,307,303,284,0
308,317,303,284,0
307,325,303,286,0
307,329,303,288,0
307,328,303,293,0
308,322,304,297,0
309,316,305,300,0
311,314,306,303,0
314,313,308,307,0
319,312,308,309,0
323,312,308,311,0
324,311,307,311,0
318,307,307,312,0
311,303,307,311,0
305,301,308,311,0
301,301,308,310,0
299,304,309,310,0
299,310,309,310,0
299,315,309,309,0
300,316,309,308,0
299,311,309,307,0
299,300,308,306,0
299,287,309,307,0
299,277,308,308,0
298,271,308,309,0
298,272,307,309,0
298,282,306,310,0
301,297,305,311,0
306,307,305,316,0
312,308,307,321,0
318,306,308,327,0
323,302,310,332,0
322,299,312,334,0
318,298,313,332,0
314,298,313,326,0
310,302,312,318,0
307,308,311,311,0
306,316,309,305,0
306,320,308,301,0
307,320,307,298,0
308,319,305,297,0
309,317,304,296,0
309,314,303,297,0
309,311,302,298,0
309,310,301,299,0
308,307,301,301,0
306,302,301,302,0
304,299,302,303,0
303,298,301,303,0
302,303,302,301,0
302,309,303,301,0
302,316,304,302,0
304,319,305,305,0
306,315,306,309,0
307,310,307,315,0
307,309,308,322,0
307,308,309,331,0
307,307,310,339,0
307,306,311,345,0
307,307,312,346,0
308,307,312,344,0
309,307,312,338,0
310,306,312,331,0
310,304,312,324,0
309,303,311,317,0
308,303,310,310,0
309,302,308,304,0
311,302,307,299,0
312,301,305,296,0
312,300,304,296,0
310,300,304,299,0
307,304,304,302,0
305,310,305,305,0
303,314,306,308,0
303,317,307,309,0
303,318,307,309,0
305,319,307,309,0
307,318,308,308,0
307,315,307,308,0
307,310,305,308,0
306,304,304,308,0
304,296,303,308,0
303,287,303,306,0
302,276,303,303,0
301,266,302,300,0
301,260,302,297,0
302,263,302,296,0
303,272,301,295,0
305,287,302,297,0
307,299,303,298,0
308,302,302,299,0
309,299,302,300,0
308,296,302,302,0
308,295,301,304,0
309,298,300,304,0
310,300,300,304,0
311,298,299,302,0
312,290,299,301,0
312,282,299,299,0
311,277,301,299,0
312,274,301,299,0
311,272,301,299,0
312,277,300,300,0
313,292,300,302,0
318,313,299,305,0
323,329,298,307,0
321,337,297,307,0
313,336,298,307,0
305,333,299,308,0
301,333,300,309,0
298,334,302,310,0
297,331,303,311,0
294,327,304,312,0
292,323,306,313,0
292,320,307,314,0
293,318,308,316,0
296,319,307,317,0
298,322,306,317,0
301,325,304,316,0
303,327,303,315,0
303,327,301,314,0
303,327,300,313,0
302,327,299,311,0
302,325,300,308,0
303,320,300,305,0
305,314,301,301,0
307,306,301,297,0
309,294,301,295,0
310,284,302,294,0
312,282,303,295,0
313,286,304,297,0
314,291,304,298,0
313,294,305,300,0
313,293,305,301,0
312,289,306,302,0
311,283,307,303,0
311,278,308,306,0
309,281,308,308,0
307,289,308,309,0
304,299,306,308,0
301,313,306,305,0
301,331,305,304,0
302,344,305,304,0
303,347,304,304,0
303,340,304,305,0
303,327,304,308,0
302,311,304,310,0
303,294,304,314,0
304,279,305,318,0
306,268,307,323,0
308,264,309,327,0
310,269,309,329,0
310,283,310,327,0
310,305,309,323,0
309,328,307,318,0
307,346,306,314,0
305,357,305,310,0
304,362,304,307,0
304,360,303,306,0
304,353,302,307,0
304,344,303,309,0
302,337,303,311,0
302,333,304,312,0
303,332,304,311,0
307,331,304,310,0
310,329,303,308,0
312,325,303,307,0
313,317,303,306,0
314,310,304,305,0
315,304,305,306,0
315,303,307,307,0
314,304,308,310,0
312,306,308,315,0
310,306,307,319,0
308,302,305,321,0
308,300,304,320,0
309,300,303,317,0
313,300,303,312,0
316,299,302,305,0
317,296,302,298,0
313,293,302,291,0
309,292,302,286,0
306,293,303,284,0
304,298,303,282,0
302,307,302,283,0
301,318,301,284,0
300,325,300,286,0
301,326,300,290,0
302,320,300,295,0
302,309,301,299,0
302,293,302,303,0
302,280,303,304,0
302,273,304,305,0
302,276,304,306,0
302,285,305,308,0
303,296,307,310,0
304,302,308,315,0
304,302,309,321,0
303,296,310,326,0
302,292,310,329,0
302,293,310,329,0
302,295,310,328,0
305,299,310,325,0
309,304,309,320,0
312,309,307,314,0
312,311,305,309,0
312,310,304,306,0
312,309,302,302,0
314,308,301,298,0
316,310,300,296,0
319,314,299,295,0
322,322,300,295,0
322,333,301,296,0
318,342,302,296,0
312,351,304,295,0
307,356,305,295,0
302,356,307,296,0
300,353,308,297,0
299,343,310,300,0
298,327,311,303,0
299,306,312,306,0
301,286,312,309,0
304,274,311,310,0
309,274,311,309,0
314,281,311,306,0
319,291,311,303,0
324,300,311,303,0
323,304,310,304,0
316,304,310,306,0
310,304,310,307,0
306,303,310,309,0
304,300,310,310,0
303,296,310,310,0
303,291,310,309,0
302,290,310,309,0
302,291,309,308,0
301,297,308,308,0
301,305,307,307,0
300,314,307,307,0
301,314,306,307,0
302,307,305,307,0
303,297,305,306,0
303,286,304,305,0
302,275,303,304,0
301,270,303,302,0
301,276,303,303,0
303,289,305,306,0
305,305,307,310,0
308,322,309,315,0
310,337,311,322,0
312,347,313,329,0
313,348,315,335,0
313,342,315,337,0
312,332,314,335,0
311,321,313,331,0
310,309,313,326,0
309,299,312,321,0
309,297,312,318,0
308,299,312,316,0
308,305,311,313,0
308,312,310,310,0
307,317,309,307,0
307,319,307,301,0
307,318,306,296,0
308,315,305,291,0
311,313,304,290,0
313,314,304,290,0
312,317,305,292,0
309,319,307,295,0
304,319,309,297,0
300,315,312,299,0
298,309,314,300,0
299,308,315,302,0
304,311,316,302,0
308,314,316,303,0
310,315,316,302,0
310,316,315,302,0
309,318,314,301,0
307,320,314,301,0
305,322,314,301,0
305,323,314,301,0
305,321,315,303,0
305,317,316,306,0
305,311,317,310,0
304,305,317,314,0
304,298,317,316,0
304,290,316,315,0
305,282,315,314,0
306,276,315,311,0
307,271,315,309,0
309,269,315,307,0
312,272,315,308,0
317,284,315,309,0
319,300,314,310,0
318,316,314,312,0
315,328,314,312,0
311,332,314,313,0
307,330,314,314,0
304,324,314,314,0
302,317,314,315,0
300,311,313,315,0
299,308,313,316,0
299,310,313,317,0
299,314,312,316,0
300,317,311,315,0
302,319,310,313,0
303,319,308,310,0
305,319,306,306,0
306,316,306,304,0
307,310,305,302,0
308,303,305,302,0
308,294,306,302,0
308,287,307,303,0
307,281,307,303,0
306,277,307,302,0
304,275,306,301,0
302,280,305,300,0
300,291,304,299,0
299,303,303,299,0
297,307,303,297,0
296,304,304,297,0
297,298,305,298,0
300,294,306,302,0
303,294,307,305,0
305,300,308,307,0
307,308,308,309,0
309,315,307,310,0
310,321,306,311,0
311,326,305,310,0
312,329,305,310,0
313,331,305,309,0
313,331,306,308,0
313,330,307,307,0
313,328,308,305,0
312,326,309,306,0
311,323,310,310,0
310,321,310,316,0
309,318,310,320,0
309,315,309,323,0
310,313,308,324,0
312,313,308,324,0
314,315,307,325,0
317,318,306,326,0
317,321,305,326,0
313,322,305,325,0
307,321,305,322,0
303,317,305,316,0
300,309,305,310,0
299,298,306,306,0
300,288,306,304,0
301,286,308,303,0
303,292,310,304,0
305,301,311,304,0
306,307,311,302,0
307,311,311,297,0
306,312,310,294,0
306,312,308,291,0
306,313,306,289,0
306,314,305,288,0
306,314,304,288,0
306,312,303,289,0
305,308,302,291,0
305,303,302,295,0
305,299,302,299,0
303,297,303,302,0
302,294,302,304,0
301,292,302,305,0
301,290,301,306,0
303,291,301,307,0
306,295,302,309,0
310,302,303,309,0
314,307,304,308,0
316,311,304,306,0
315,315,303,304,0
313,317,303,302,0
310,316,303,300,0
307,314,303,298,0
305,315,303,297,0
304,318,303,298,0
303,322,303,299,0
302,327,303,300,0
301,333,303,301,0
301,337,302,302,0
301,339,302,301,0
300,336,302,299,0
300,328,302,298,0
301,318,301,298,0
302,308,301,299,0
303,300,301,301,0
304,295,301,303,0
306,292,302,306,0
306,290,303,308,0
307,292,304,310,0
306,297,306,310,0
305,304,306,308,0
304,311,306,306,0
302,317,305,304,0
300,323,304,302,0
299,326,303,301,0
297,325,302,301,0
297,324,301,300,0
296,326,302,301,0
296,325,302,301,0
295,314,304,304,0
295,299,305,307,0
297,287,305,312,0
299,277,306,315,0
302,270,306,318,0
307,267,306,319,0
309,271,307,319,0
311,279,307,319,0
311,290,308,319,0
310,300,308,320,0
309,308,309,321,0
308,313,308,321,0
306,317,308,319,0
305,317,307,318,0
304,317,306,317,0
303,316,305,319,0
304,316,304,323,0
305,317,302,327,0
308,316,301,329,0
312,316,300,329,0
317,316,299,327,0
319,314,298,321,0
315,308,297,313,0
308,299,296,304,0
301,288,295,297,0
294,277,296,292,0
290,268,298,291,0
290,262,300,290,0
290,267,302,289,0
291,280,303,288,0
293,293,303,288,0
293,303,303,289,0
294,306,304,292,0
295,310,304,296,0
295,313,305,300,0
295,315,305,303,0
296,317,306,307,0
297,318,306,309,0
298,320,305,310,0
300,323,304,311,0
300,326,302,311,0
300,325,302,312,0
301,321,302,313,0
303,317,302,314,0
305,312,303,316,0
307,306,303,316,0
308,297,303,316,0
308,286,303,315,0
308,274,303,313,0
307,264,304,311,0
306,253,304,309,0
305,244,302,307,0
305,242,301,307,0
306,250,301,308,0
310,266,302,311,0
313,284,302,312,0
314,298,302,310,0
311,309,302,308,0
306,318,302,305,0
301,324,303,303,0
298,326,303,301,0
297,320,304,301,0
297,308,303,302,0
299,294,304,305,0
301,282,304,307,0
303,278,306,309,0
304,285,306,310,0
303,296,307,310,0
302,302,307,311,0
301,304,308,313,0
300,302,309,314,0
299,297,309,314,0
297,292,309,315,0
296,291,309,315,0
294,296,308,314,0
293,303,307,310,0
292,311,305,305,0
294,323,305,300,0
296,333,305,298,0
298,336,306,299,0
300,334,309,302,0
302,327,313,307,0
305,318,315,310,0
306,311,315,312,0
306,306,313,311,0
306,304,311,310,0
306,305,310,310,0
307,307,310,311,0
308,310,311,313,0
307,312,311,314,0
306,311,311,315,0
303,307,311,316,0
300,301,310,316,0
298,295,310,316,0
297,294,309,315,0
297,298,309,314,0
297,305,308,313,0
297,311,308,312,0
297,314,307,312,0
298,314,306,314,0
298,312,306,315,0
299,308,304,316,0
298,302,304,317,0
299,295,303,316,0
301,290,305,315,0
305,294,306,313,0
311,304,308,311,0
314,314,309,310,0
317,318,310,309,0
315,316,310,309,0
310,310,311,308,0
303,302,310,308,0
297,297,310,307,0
293,296,310,305,0
289,299,309,303,0
287,305,307,301,0
287,322,305,301,0
289,338,305,303,0
292,343,304,308,0
295,336,305,315,0
299,320,306,320,0
302,301,308,322,0
304,284,308,320,0
306,274,307,315,0
308,271,307,311,0
310,272,307,307,0
312,274,308,305,0
313,277,309,303,0
312,280,310,302,0
310,280,310,301,0
307,276,309,300,0
303,270,308,301,0
300,266,307,301,0
297,263,305,300,0
296,259,303,298,0
297,253,303,297,0
299,254,303,296,0
302,267,305,297,0
304,288,306,298,0
304,305,307,299,0
302,316,307,300,0
300,322,307,300,0
298,323,307,300,0
297,321,306,300,0
297,317,306,300,0
298,312,307,300,0
300,309,308,302,0
304,307,309,305,0
309,309,310,308,0
315,313,310,311,0
318,321,311,313,0
314,329,311,313,0
305,339,311,313,0
296,348,311,313,0
290,355,311,311,0
288,357,310,308,0
286,354,309,305,0
287,347,308,303,0
288,334,307,303,0
290,316,307,304,0
292,297,307,304,0
295,281,308,305,0
298,274,309,305,0
302,275,310,308,0
306,282,312,310,0
310,288,314,312,0
313,291,315,314,0
314,295,316,316,0
313,301,318,317,0
312,309,319,316,0
311,317,319,315,0
310,323,319,315,0
308,329,318,315,0
307,334,317,317,0
305,336,315,317,0
303,336,314,317,0
301,333,312,314,0
299,329,309,310,0
297,323,307,304,0
296,319,306,297,0
296,317,305,289,0
297,316,305,283,0
300,313,305,281,0
302,307,305,282,0
303,298,305,285,0
304,289,306,288,0
306,282,306,292,0
305,279,307,296,0
303,277,308,298,0
300,277,309,300,0
297,277,309,301,0
295,278,309,301,0
296,281,309,303,0
299,285,308,305,0
302,291,307,307,0
302,301,306,308,0
302,313,306,312,0
302,322,307,316,0
302,329,308,320,0
303,334,309,322,0
304,335,311,320,0
304,335,312,319,0
304,332,312,318,0
303,321,311,319,0
301,307,310,320,0
300,296,309,320,0
302,295,309,321,0
304,300,310,321,0
307,308,311,321,0
307,316,312,318,0
306,322,313,314,0
304,322,312,310,0
302,320,311,306,0
299,318,309,302,0
296,319,306,298,0
294,321,304,295,0
294,320,303,293,0
297,317,302,292,0
302,314,302,292,0
309,313,302,292,0
315,316,304,292,0
317,319,305,293,0
316,319,306,296,0
314,316,306,299,0
312,308,306,302,0
311,292,307,306,0
310,273,307,309,0
310,256,306,310,0
311,249,306,310,0
311,254,306,308,0
311,266,306,306,0
312,281,307,303,0
313,299,307,299,0
314,318,307,295,0
314,337,306,292,0
313,354,305,290,0
311,371,304,290,0
307,382,303,290,0
303,380,303,291,0
300,370,304,293,0
298,357,304,295,0
298,343,305,297,0
299,329,306,299,0
302,318,306,302,0
305,310,307,306,0
308,305,307,309,0
310,302,307,313,0
311,300,308,315,0
311,296,308,316,0
310,292,308,316,0
309,287,307,316,0
308,283,305,314,0
308,283,304,310,0
309,289,302,304,0
313,297,301,299,0
317,303,300,295,0
322,307,299,293,0
326,307,298,292,0
324,303,299,292,0
315,296,300,292,0
306,287,301,293,0
300,282,302,294,0
296,282,303,297,0
294,285,304,298,0
295,292,304,300,0
296,302,305,300,0
297,310,306,302,0
299,315,307,304,0
300,316,309,308,0
300,315,310,313,0
299,309,310,316,0
298,296,310,318,0
296,276,309,319,0
294,259,308,319,0
293,250,306,317,0
292,250,304,315,0
292,257,304,311,0
293,274,304,306,0
296,304,306,303,0
301,339,307,301,0
307,361,308,300,0
312,367,308,299,0
315,361,308,299,0
317,347,308,300,0
318,334,308,302,0
319,324,309,304,0
319,318,310,305,0
319,315,311,306,0
318,313,313,307,0
318,310,314,308,0
315,304,314,307,0
311,297,313,305,0
307,294,312,304,0
305,297,310,304,0
308,305,309,305,0
314,313,308,307,0
319,317,307,310,0
321,319,306,313,0
321,319,306,318,0
318,319,307,321,0
314,319,307,322,0
310,319,307,321,0
306,319,306,318,0
304,317,305,313,0
303,316,304,309,0
302,314,304,308,0
302,311,305,309,0
302,305,306,311,0
302,298,308,313,0
302,297,310,314,0
301,306,310,314,0
303,317,310,314,0
306,322,309,315,0
309,322,309,317,0
312,321,308,319,0
315,321,307,321,0
316,321,307,320,0
314,323,306,317,0
311,321,305,311,0
308,314,303,305,0
304,302,302,300,0
302,288,302,298,0
302,277,302,298,0
304,276,304,300,0
308,287,304,304,0
313,299,304,308,0
319,307,304,310,0
325,313,305,310,0
328,315,305,309,0
326,314,306,306,0
321,311,307,304,0
316,308,307,302,0
311,307,307,298,0
308,305,307,294,0
305,306,306,290,0
303,309,305,287,0
302,314,303,284,0
303,319,302,283,0
305,320,302,283,0
307,318,301,284,0
308,314,301,286,0
310,311,300,288,0
310,310,300,290,0
310,312,300,292,0
310,316,300,294,0
309,315,300,296,0
309,308,302,299,0
309,300,304,303,0
309,292,307,307,0
310,287,309,310,0
311,286,310,311,0
311,293,310,311,0
311,306,309,311,0
311,317,308,311,0
309,323,308,312,0
307,326,307,313,0
306,326,306,313,0
306,323,305,312,0
307,319,304,310,0
307,316,304,310,0
308,317,303,312,0
308,320,303,314,0
307,323,303,315,0
307,323,302,314,0
306,322,302,312,0
307,318,302,310,0
308,312,302,309,0
310,306,303,308,0
312,304,304,309,0
313,303,305,309,0
314,302,306,309,0
314,299,307,308,0
314,295,307,309,0
314,292,308,313,0
314,290,309,319,0
314,291,310,326,0
313,292,309,329,0
312,294,309,331,0
311,297,308,333,0
310,299,307,333,0
309,299,305,329,0
307,294,303,322,0
305,286,300,314,0
303,279,298,304,0
303,275,298,293,0
303,276,298,284,0
305,283,299,277,0
309,294,300,275,0
314,307,302,276,0
318,319,303,280,0
321,326,305,284,0
321,328,306,290,0
318,328,306,295,0
313,325,307,301,0
310,322,307,306,0
307,318,306,312,0
305,315,306,316,0
305,313,305,318,0
305,313,304,318,0
306,315,303,314,0
306,319,303,309,0
307,321,302,304,0
308,322,301,299,0
310,319,301,297,0
311,314,300,295,0
313,310,300,296,0
313,305,301,297,0
313,299,301,299,0
314,295,303,300,0
313,290,304,301,0
311,283,305,301,0
308,278,305,300,0
305,279,305,301,0
303,286,304,303,0
302,300,303,306,0
301,318,302,309,0
301,333,302,311,0
302,343,301,315,0
302,345,301,317,0
302,337,301,319,0
303,321,300,317,0
304,307,300,314,0
309,302,301,311,0
314,305,303,309,0
320,309,304,307,0
324,309,304,305,0
327,307,305,302,0
327,304,306,298,0
327,301,306,295,0
328,298,307,293,0
328,294,306,293,0
322,291,306,295,0
313,292,306,298,0
306,298,308,303,0
303,307,308,309,0
302,317,309,314,0
302,323,309,319,0
302,324,310,324,0
302,322,310,330,0
303,321,310,338,0
304,318,309,346,0
306,314,309,352,0
306,312,308,353,0
306,310,306,351,0
306,308,304,345,0
305,300,301,335,0
305,293,299,322,0
306,290,298,309,0
308,292,298,296,0
309,298,299,286,0
310,307,301,279,0
311,315,302,275,0
310,321,302,273,0
308,323,300,274,0
306,323,300,277,0
306,322,300,281,0
306,323,301,285,0
306,327,302,288,0
307,329,302,292,0
307,329,303,295,0
308,326,305,297,0
308,322,306,299,0
309,315,306,299,0
308,307,305,298,0
307,300,304,296,0
306,293,304,295,0
305,290,304,294,0
305,296,304,295,0
304,303,305,296,0
304,301,306,298,0
303,294,306,301,0
303,291,307,305,0
304,297,308,308,0
305,304,308,312,0
307,306,309,315,0
309,307,309,319,0
310,308,310,322,0
310,309,310,323,0
309,309,309,323,0
308,308,308,321,0
307,307,306,319,0
305,304,304,316,0
304,299,301,312,0
304,296,299,307,0
305,296,298,303,0
306,296,298,299,0
308,295,299,296,0
308,293,299,294,0
308,287,300,293,0
308,280,302,294,0
309,275,304,297,0
310,274,304,299,0
311,275,305,300,0
310,276,304,301,0
309,281,304,302,0
309,291,302,302,0
308,303,301,301,0
307,308,299,299,0
306,309,298,297,0
304,309,297,296,0
304,311,297,296,0
303,315,297,295,0
303,321,298,295,0
303,327,299,295,0
304,334,301,297,0
306,334,304,301,0
308,326,307,306,0
310,315,309,312,0
310,307,312,319,0
309,302,314,325,0
307,300,315,329,0
306,298,314,328,0
305,297,313,323,0
305,295,311,316,0
305,296,309,308,0
305,304,307,301,0
305,314,306,296,0
306,321,306,293,0
308,321,307,292,0
311,316,307,293,0
314,311,306,296,0
312,306,307,303,0
310,303,307,312,0
307,305,308,320,0
306,311,309,325,0
305,315,310,329,0
305,310,312,330,0
305,298,313,330,0
304,284,315,328,0
302,270,316,324,0
301,260,316,319,0
299,255,315,312,0
297,260,313,305,0
296,274,311,298,0
296,291,308,293,0
297,299,307,289,0
298,301,305,287,0
300,306,305,286,0
303,316,305,285,0
306,325,305,286,0
308,330,305,287,0
310,331,305,288,0
311,330,305,289,0
311,324,305,291,0
311,317,306,293,0
310,312,306,294,0
309,308,305,296,0
308,306,305,301,0
307,306,304,306,0
307,309,304,311,0
305,314,305,314,0
305,317,304,314,0
304,317,305,312,0
303,316,305,309,0
303,315,306,307,0
303,314,308,305,0
303,313,309,305,0
303,312,310,304,0
301,309,309,301,0
300,306,309,299,0
300,306,308,299,0
301,309,308,300,0
302,310,309,301,0
303,309,309,303,0
303,307,309,304,0
303,308,308,304,0
302,311,308,306,0
301,317,309,306,0
300,322,309,306,0
298,326,310,304,0
298,329,310,301,0
298,329,311,299,0
301,322,311,299,0
304,308,312,300,0
306,295,313,303,0
306,288,313,306,0
307,286,313,308,0
306,292,312,309,0
305,302,311,310,0
304,310,310,310,0
303,313,308,310,0
303,312,307,308,0
303,310,306,305,0
303,308,306,303,0
303,309,307,303,0
305,310,308,304,0
307,313,309,305,0
309,317,310,308,0
309,320,310,313,0
309,322,310,318,0
308,323,310,322,0
307,322,309,324,0
305,319,308,323,0
304,312,308,320,0
302,298,307,316,0
301,285,306,312,0
302,283,306,310,0
305,285,306,309,0
310,288,308,310,0
314,294,308,311,0
313,300,308,313,0
310,304,308,315,0
307,303,309,319,0
306,302,310,323,0
306,305,311,325,0
308,310,312,325,0
309,313,313,323,0
310,313,313,321,0
309,310,314,318,0
308,306,314,315,0
306,301,313,311,0
304,296,312,308,0
302,292,311,306,0
300,287,309,302,0
297,284,307,297,0
295,283,305,292,0
293,285,303,286,0
294,291,301,283,0
297,300,301,282,0
301,306,300,281,0
303,308,299,281,0
305,308,298,282,0
305,307,299,284,0
305,306,300,287,0
306,306,301,289,0
307,311,302,291,0
309,316,304,295,0
312,319,305,300,0
314,318,308,304,0
316,317,310,308,0
315,314,311,310,0
314,309,311,310,0
313,306,311,311,0
312,305,311,311,0
310,305,310,311,0
309,306,309,312,0
308,305,308,313,0
306,304,308,313,0
304,300,307,311,0
304,295,306,307,0
304,290,304,304,0
304,287,303,300,0
306,288,302,297,0
309,295,302,297,0
311,304,303,298,0
311,310,306,301,0
310,311,308,305,0
308,309,309,307,0
306,305,309,308,0
305,300,309,308,0
305,296,310,307,0
305,293,309,306,0
303,291,309,304,0
301,291,308,303,0
301,294,307,301,0
303,299,306,300,0
305,301,305,299,0
306,302,304,299,0
308,303,304,300,0
310,304,303,300,0
312,304,302,301,0
315,303,301,302,0
315,304,300,305,0
309,308,301,308,0
301,311,302,311,0
296,312,304,315,0
296,312,306,318,0
299,311,310,321,0
302,314,311,323,0
305,321,311,325,0
306,329,311,324,0
307,334,311,323,0
308,337,310,322,0
310,337,309,323,0
312,334,308,323,0
315,328,307,322,0
316,322,306,320,0
313,315,305,316,0
307,307,305,311,0
302,300,304,307,0
298,292,304,302,0
294,286,304,298,0
291,282,303,295,0
288,282,303,293,0
285,284,302,292,0
285,289,302,291,0
287,296,303,293,0
292,301,304,297,0
297,300,306,301,0
303,295,308,304,0
307,286,310,305,0
310,280,311,306,0
312,279,311,306,0
313,284,311,305,0
313,294,311,305,0
313,307,311,305,0
313,319,310,307,0
312,326,310,310,0
312,329,309,313,0
312,329,308,316,0
312,329,307,318,0
311,328,305,319,0
310,326,304,317,0
309,325,303,313,0
308,324,302,307,0
307,323,301,301,0
306,321,302,298,0
305,318,303,297,0
306,314,304,299,0
306,308,305,301,0
306,302,306,303,0
306,298,307,304,0
305,299,308,304,0
304,305,308,304,0
304,312,309,302,0
304,318,309,302,0
303,323,308,302,0
303,326,308,303,0
302,325,307,303,0
303,318,306,301,0
305,307,305,297,0
307,295,303,293,0
308,279,301,289,0
309,264,300,287,0
309,251,300,288,0
309,245,302,291,0
307,249,304,297,0
304,264,306,303,0
300,287,307,309,0
298,308,308,314,0
296,323,309,316,0
295,331,308,316,0
294,332,307,315,0
294,325,306,313,0
294,314,306,312,0
295,308,306,312,0
296,306,307,313,0
298,305,307,314,0
300,306,306,316,0
301,306,306,316,0
302,307,306,315,0
302,309,305,314,0
303,313,304,312,0
303,318,303,314,0
304,322,302,319,0
305,323,302,323,0
305,324,302,324,0
305,324,302,322,0
305,324,302,318,0
304,321,303,314,0
304,313,304,309,0
305,301,305,304,0
305,290,305,302,0
306,282,305,302,0
306,278,306,303,0
306,282,306,304,0
307,292,307,306,0
308,307,307,309,0
309,321,307,312,0
311,333,307,314,0
311,340,306,313,0
312,344,304,311,0
311,344,303,307,0
311,340,301,303,0
311,331,301,298,0
312,317,301,295,0
312,303,301,294,0
312,291,302,295,0
311,285,304,299,0
308,282,306,305,0
304,278,309,310,0
302,274,310,313,0
301,274,310,314,0
301,278,308,313,0
302,287,307,311,0
304,297,305,307,0
305,307,304,303,0
306,316,303,300,0
307,324,303,298,0
307,328,303,296,0
307,328,304,294,0
308,327,304,292,0
309,327,305,291,0
311,330,306,293,0
313,333,307,296,0
314,334,309,299,0
314,335,310,304,0
315,330,312,310,0
315,323,313,315,0
315,317,313,318,0
315,314,313,319,0
313,313,313,318,0
312,313,313,315,0
310,314,311,311,0
308,314,310,307,0
306,311,308,303,0
305,304,307,301,0
304,298,307,299,0
304,294,307,298,0
306,292,307,298,0
308,290,306,298,0
311,289,306,300,0
315,288,306,302,0
319,285,307,304,0
322,278,308,307,0
324,266,310,312,0
321,252,312,318,0
317,238,314,324,0
312,229,314,328,0
307,227,314,330,0
304,236,313,331,0
302,256,312,332,0
302,281,311,332,0
305,304,310,331,0
311,322,310,328,0
317,334,310,324,0
315,337,308,318,0
307,333,306,311,0
299,326,303,304,0
294,320,301,299,0
292,316,300,295,0
294,315,300,294,0
298,312,300,293,0
301,308,301,293,0
303,303,301,294,0
303,299,301,295,0
305,296,301,299,0
306,297,301,305,0
307,301,303,313,0
306,307,305,322,0
305,313,306,329,0
303,318,308,331,0
302,320,308,330,0
300,320,309,327,0
298,319,308,321,0
298,317,308,317,0
298,316,308,313,0
298,315,307,311,0
299,316,307,310,0
299,320,306,309,0
300,318,306,307,0
300,311,305,306,0
300,303,305,306,0
301,297,306,305,0
301,297,306,304,0
303,295,306,304,0
305,291,305,304,0
305,284,305,303,0
304,279,304,300,0
303,277,304,299,0
301,281,304,298,0
300,287,303,299,0
300,295,304,303,0
302,303,304,309,0
306,311,305,314,0
310,316,305,316,0
314,319,305,316,0
313,321,304,313,0
310,321,304,309,0
307,319,303,305,0
304,314,303,303,0
302,307,303,302,0
300,300,303,303,0
299,294,304,303,0
297,288,305,303,0
296,283,306,304,0
297,280,308,307,0
300,281,311,312,0
304,284,313,318,0
306,289,315,323,0
307,296,316,326,0
307,301,316,327,0
306,306,317,326,0
305,312,317,325,0
303,316,316,326,0
301,318,316,326,0
300,318,315,327,0
299,318,313,327,0
299,318,311,326,0
300,314,310,323,0
302,305,308,320,0
303,293,307,314,0
304,285,305,307,0
305,283,304,300,0
306,284,302,295,0
307,284,301,291,0
308,284,301,288,0
309,286,302,288,0
309,290,302,291,0
309,295,304,295,0
309,302,304,298,0
308,309,305,301,0
309,314,306,302,0
310,316,308,304,0
311,319,309,304,0
311,318,309,305,0
310,314,308,305,0
307,307,307,305,0
306,303,306,304,0
305,300,305,303,0
305,295,304,302,0
305,286,303,302,0
303,273,303,301,0
298,260,302,298,0
293,250,302,293,0
287,241,303,290,0
285,235,305,291,0
288,233,307,295,0
294,235,310,303,0
301,249,311,314,0
308,273,313,325,0
313,302,314,335,0
315,328,315,339,0
316,348,314,339,0
315,360,313,335,0
312,365,311,331,0
309,362,309,327,0
307,351,309,326,0
306,335,308,326,0
306,317,308,327,0
305,301,308,328,0
304,290,308,327,0
304,289,308,325,0
304,293,308,322,0
304,298,308,318,0
303,303,308,315,0
304,307,308,313,0
305,310,308,312,0
306,314,308,310,0
306,317,308,309,0
306,320,307,308,0
306,322,306,309,0
308,323,305,308,0
311,323,304,305,0
314,323,303,302,0
319,322,302,298,0
322,323,301,294,0
319,324,300,293,0
308,327,301,294,0
296,329,302,296,0
289,328,302,296,0
287,320,302,296,0
289,305,302,295,0
293,289,302,295,0
297,278,301,297,0
300,273,302,299,0
303,277,302,301,0
306,290,303,304,0
309,307,305,308,0
312,323,306,312,0
314,332,307,316,0
312,332,308,318,0
309,328,307,319,0
307,324,306,319,0
306,321,305,318,0
307,315,303,315,0
308,310,302,311,0
309,306,301,307,0
309,305,300,304,0
309,304,298,302,0
307,299,297,300,0
306,291,295,299,0
306,282,294,298,0
307,273,294,297,0
308,264,294,298,0
307,257,295,299,0
305,255,297,302,0
305,260,298,306,0
305,267,300,310,0
306,274,302,313,0
306,287,304,314,0
307,304,305,315,0
308,322,305,314,0
307,335,305,314,0
307,344,306,314,0
307,350,306,315,0
308,354,307,316,0
307,358,307,316,0
307,360,308,315,0
306,356,308,312,0
304,346,307,309,0
303,332,305,309,0
303,314,305,313,0
302,295,305,320,0
302,283,306,326,0
303,280,307,330,0
305,286,309,332,0
308,298,310,331,0
311,309,311,329,0
314,310,312,325,0
315,303,314,322,0
315,294,315,319,0
314,288,314,317,0
312,286,313,315,0
309,289,311,313,0
305,299,309,312,0
302,312,308,312,0
300,322,308,314,0
301,324,309,316,0
302,320,310,316,0
302,313,310,314,0
301,306,310,311,0
301,303,309,307,0
302,298,308,304,0
302,286,307,302,0
302,271,307,301,0
302,260,308,301,0
303,260,308,303,0
303,270,309,305,0
305,288,310,308,0
307,307,312,311,0
309,322,313,313,0
311,328,313,314,0
313,327,313,314,0
313,325,312,313,0
313,323,311,309,0
312,321,310,304,0
311,319,310,301,0
311,318,310,298,0
311,318,310,296,0
311,319,309,295,0
311,317,309,296,0
311,312,308,297,0
311,306,307,301,0
308,303,307,304,0
306,303,308,307,0
304,304,308,308,0
304,305,308,306,0
304,308,307,302,0
304,312,307,298,0
303,313,306,295,0
303,309,305,293,0
302,302,305,294,0
302,300,306,297,0
303,301,306,302,0
305,302,307,306,0
305,300,307,310,0
305,299,306,314,0
304,298,306,317,0
304,300,305,319,0
304,302,305,318,0
305,301,305,314,0
306,298,305,309,0
306,297,305,305,0
305,298,306,306,0
303,299,307,312,0
303,301,308,320,0
304,304,309,326,0
306,309,308,329,0
306,313,307,329,0
305,316,306,326,0
304,319,306,323,0
302,320,305,319,0
300,320,304,315,0
299,319,304,310,0
298,315,304,306,0
298,312,303,302,0
299,309,303,297,0
299,306,302,292,0
300,307,302,289,0
301,309,302,288,0
302,309,302,287,0
302,305,301,287,0
302,300,301,288,0
302,298,301,292,0
303,297,302,297,0
304,298,303,302,0
304,298,306,306,0
304,298,308,311,0
304,296,310,315,0
304,295,311,317,0
305,292,311,317,0
305,291,310,315,0
304,292,309,312,0
304,292,308,309,0
302,291,308,306,0
300,290,309,304,0
298,289,309,301,0
297,287,308,300,0
296,283,307,299,0
296,279,306,299,0
297,282,305,299,0
300,293,304,301,0
306,309,305,304,0
316,323,305,308,0
323,335,306,313,0
322,342,306,318,0
315,344,307,321,0
307,342,309,323,0
302,336,311,323,0
299,329,313,321,0
298,324,313,319,0
297,320,313,317,0
298,317,312,314,0
299,317,310,310,0
300,318,308,304,0
302,320,305,297,0
302,321,303,290,0
301,325,302,286,0
296,332,301,283,0
293,341,301,282,0
292,348,302,285,0
295,346,303,290,0
299,337,305,297,0
303,322,307,303,0
307,306,308,310,0
309,294,310,314,0
311,289,312,318,0
312,290,313,320,0
312,294,315,321,0
311,297,315,321,0
309,297,315,322,0
308,297,314,320,0
307,296,313,317,0
307,296,312,313,0
307,295,312,310,0
307,294,312,308,0
306,293,312,307,0
306,294,311,306,0
306,296,311,305,0
305,300,309,304,0
305,308,308,303,0
305,317,306,301,0
305,326,305,300,0
305,332,305,300,0
305,333,305,301,0
306,330,306,301,0
309,321,306,302,0
312,309,307,301,0
314,296,307,300,0
315,283,308,301,0
314,269,307,302,0
311,256,307,302,0
307,246,306,303,0
304,244,305,306,0
303,255,304,311,0
304,272,303,314,0
306,290,303,315,0
308,304,302,314,0
309,313,302,312,0
309,317,302,309,0
309,317,301,306,0
309,313,300,303,0
310,309,300,301,0
311,309,301,299,0
311,312,301,299,0
310,318,302,299,0
309,324,303,300,0
307,330,304,300,0
306,335,305,300,0
307,336,306,301,0
308,338,307,301,0
308,342,306,301,0
308,347,306,301,0
308,347,306,300,0
309,340,306,300,0
311,332,306,301,0
311,326,307,303,0
312,324,307,305,0
312,324,307,309,0
312,326,307,314,0
311,326,306,317,0
311,324,307,320,0
311,324,307,323,0
310,323,306,324,0
309,319,306,327,0
308,313,306,330,0
307,305,307,332,0
307,299,308,331,0
308,297,309,328,0
307,300,309,321,0
307,312,310,313,0
307,326,309,305,0
305,339,307,296,0
304,345,306,290,0
302,337,304,286,0
300,319,303,284,0
301,301,302,283,0
302,288,302,283,0
304,280,302,284,0
307,274,304,287,0
310,272,304,289,0
312,272,304,291,0
312,274,303,294,0
311,277,303,299,0
311,283,304,304,0
310,291,305,309,0
311,300,306,315,0
311,307,308,320,0
310,311,309,324,0
310,312,309,326,0
308,307,308,325,0
307,300,307,323,0
306,292,306,321,0
306,285,305,318,0
307,281,305,315,0
309,280,304,313,0
310,278,304,312,0
309,274,303,309,0
303,271,301,305,0
296,268,299,301,0
290,270,298,297,0
288,279,297,294,0
290,295,297,293,0
296,315,299,294,0
304,330,301,298,0
310,335,304,302,0
315,336,305,304,0
319,335,306,306,0
320,334,306,305,0
319,332,307,303,0
318,327,307,299,0
317,319,305,295,0
317,310,303,292,0
315,303,302,290,0
308,300,302,291,0
300,300,302,295,0
296,301,303,298,0
296,302,304,301,0
297,302,303,302,0
297,302,303,303,0
298,302,302,304,0
299,303,302,304,0
300,306,302,305,0
302,309,302,306,0
304,312,302,307,0
304,314,303,309,0
305,315,305,313,0
305,315,307,320,0
305,315,309,327,0
305,317,311,333,0
306,319,312,334,0
306,321,313,332,0
305,322,313,328,0
305,320,311,321,0
303,314,310,313,0
302,304,308,306,0
301,295,306,301,0
301,288,305,298,0
302,281,304,297,0
304,276,303,296,0
307,276,302,294,0
308,279,302,294,0
309,286,301,297,0
310,296,302,300,0
311,304,303,303,0
311,309,304,306,0
311,314,305,306,0
310,318,305,308,0
309,319,305,309,0
308,316,306,310,0
307,312,305,312,0
307,307,305,313,0
307,304,305,315,0
307,306,304,315,0
306,310,304,315,0
307,315,305,314,0
307,318,305,313,0
307,321,306,311,0
307,324,306,311,0
306,327,306,310,0
305,326,306,309,0
305,321,305,307,0
305,315,304,306,0
305,309,303,304,0
306,304,302,302,0
307,301,301,300,0
307,303,301,301,0
307,309,301,303,0
308,319,302,306,0
310,329,303,310,0
309,335,304,313,0
307,332,306,316,0
305,322,308,319,0
302,308,309,322,0
303,299,310,328,0
306,299,311,334,0
310,304,312,339,0
312,306,312,341,0
314,303,312,339,0
315,298,311,333,0
316,293,310,326,0
316,289,309,319,0
314,287,308,315,0
310,287,307,312,0
306,287,307,311,0
303,289,306,310,0
302,291,306,309,0
302,292,306,306,0
304,292,306,303,0
305,296,307,301,0
306,305,307,300,0
305,315,306,299,0
305,322,306,300,0
303,324,305,301,0
302,324,304,302,0
301,322,303,304,0
301,321,303,305,0
303,324,303,306,0
304,327,303,306,0
306,329,303,305,0
309,328,303,302,0
310,322,302,299,0
310,313,301,298,0
308,304,301,298,0
307,301,301,302,0
307,304,302,306,0
307,308,304,311,0
308,312,306,315,0
308,314,307,316,0
308,314,308,316,0
307,312,308,314,0
305,307,308,311,0
303,301,307,310,0
302,295,307,311,0
302,290,306,314,0
302,291,306,315,0
301,296,307,315,0
301,300,306,315,0
301,300,307,315,0
301,298,307,315,0
302,299,307,315,0
303,305,306,313,0
304,316,306,311,0
305,325,306,311,0
308,327,307,311,0
311,324,308,313,0
314,319,309,314,0
317,314,310,315,0
319,312,310,315,0
319,313,310,315,0
318,316,309,316,0
317,317,307,317,0
315,315,307,317,0
313,311,306,315,0
310,308,305,311,0
308,307,303,306,0
306,307,302,303,0
307,309,302,301,0
307,312,301,300,0
306,313,301,302,0
306,313,302,305,0
306,309,301,309,0
305,299,302,312,0
305,285,303,315,0
306,270,304,317,0
307,259,306,317,0
309,253,307,316,0
310,255,307,314,0
312,265,307,311,0
313,280,306,307,0
314,294,305,302,0
315,302,305,296,0
316,306,305,292,0
317,307,306,289,0
318,308,306,288,0
318,309,306,287,0
316,308,305,287,0
314,307,304,287,0
313,306,303,287,0
313,306,302,287,0
313,310,302,289,0
314,319,302,293,0
315,332,302,299,0
315,344,304,304,0
315,351,305,308,0
314,351,306,311,0
313,348,307,313,0
312,341,307,314,0
311,334,308,314,0
311,324,308,315,0
311,313,308,315,0
311,303,308,314,0
311,297,307,313,0
310,295,307,313,0
308,293,307,312,0
305,292,308,312,0
302,290,309,314,0
301,288,309,316,0
301,283,309,318,0
301,276,309,318,0
300,271,307,314,0
300,269,306,310,0
302,269,306,307,0
306,271,308,306,0
312,276,310,308,0
318,285,312,311,0
323,297,314,315,0
325,307,315,317,0
323,314,315,319,0
319,317,315,320,0
315,319,314,321,0
309,321,314,324,0
305,322,313,326,0
302,324,311,327,0
299,324,310,325,0
297,324,309,322,0
296,323,308,319,0
297,322,308,316,0
298,318,308,314,0
299,314,308,313,0
299,306,307,311,0
298,296,306,309,0
298,286,305,306,0
298,280,304,302,0
299,278,303,298,0
300,281,303,294,0
301,288,303,290,0
302,302,304,289,0
302,317,304,289,0
301,324,304,291,0
300,323,304,295,0
300,318,304,299,0
300,312,304,303,0
301,307,303,308,0
303,305,304,312,0
304,306,304,316,0
304,313,305,319,0
304,323,305,319,0
304,334,304,319,0
303,340,303,316,0
303,338,303,313,0
303,330,303,308,0
303,320,303,303,0
302,309,303,299,0
302,298,305,299,0
303,290,306,301,0
303,286,308,304,0
302,286,308,306,0
302,291,308,307,0
303,300,308,305,0
304,308,307,303,0
306,314,305,299,0
307,315,304,297,0
308,313,302,295,0
308,312,302,295,0
308,311,301,295,0
306,310,300,296,0
305,309,300,297,0
304,308,299,300,0
304,306,299,301,0
304,301,299,303,0
305,295,300,303,0
307,293,300,304,0
310,297,301,305,0
311,302,302,307,0
312,306,303,309,0
313,309,304,312,0
313,312,306,315,0
312,315,307,319,0
311,319,308,323,0
310,322,309,327,0
309,323,309,331,0
309,324,309,331,0
308,324,309,329,0
307,326,309,324,0
307,327,308,318,0
306,325,307,312,0
306,322,306,306,0
306,320,305,302,0
307,318,305,301,0
308,314,304,301,0
310,309,304,304,0
311,302,303,306,0
312,291,303,309,0
311,275,303,311,0
310,254,303,312,0
308,235,304,312,0
306,222,305,311,0
305,219,306,309,0
305,229,307,306,0
304,252,307,303,0
304,281,307,303,0
304,310,307,304,0
304,331,307,307,0
304,339,306,309,0
304,340,306,310,0
304,339,305,311,0
306,337,304,311,0
308,336,304,312,0
311,337,304,312,0
313,336,305,312,0
312,333,305,313,0
308,330,305,314,0
306,327,305,314,0
305,326,306,314,0
306,324,307,312,0
310,321,308,311,0
311,316,309,310,0
309,310,309,309,0
305,304,308,308,0
302,300,307,307,0
300,299,307,308,0
299,302,307,309,0
298,304,307,310,0
297,304,307,312,0
297,302,307,313,0
297,298,307,314,0
298,295,307,313,0
300,293,306,311,0
302,290,305,307,0
303,288,305,303,0
304,287,304,301,0
306,288,304,300,0
307,293,304,301,0
309,300,304,304,0
310,307,304,307,0
310,313,305,309,0
309,317,305,310,0
308,319,306,311,0
306,320,307,311,0
304,320,307,312,0
303,319,307,313,0
303,317,306,314,0
304,315,306,315,0
304,311,305,315,0
304,306,304,314,0
304,302,303,312,0
303,298,302,309,0
302,294,302,306,0
302,293,301,303,0
302,294,301,302,0
303,293,301,303,0
305,289,301,303,0
306,283,301,304,0
306,277,301,304,0
306,275,301,305,0
306,281,302,305,0
307,294,303,307,0
308,309,303,308,0
308,318,302,309,0
307,322,302,309,0
306,322,301,309,0
305,320,300,309,0
304,319,300,309,0
303,319,301,309,0
302,319,301,310,0
301,320,302,310,0
301,320,302,311,0
300,319,303,312,0
299,317,303,312,0
297,311,304,312,0
296,302,303,312,0
296,288,303,311,0
297,276,303,311,0
298,272,304,313,0
302,273,306,316,0
306,279,308,319,0
310,291,309,322,0
314,305,310,324,0
316,316,310,325,0
316,322,310,325,0
314,326,310,324,0
312,327,310,323,0
310,323,310,323,0
310,315,310,321,0
309,311,310,320,0
306,312,311,319,0
302,316,311,319,0
299,320,311,319,0
298,322,310,321,0
298,320,310,324,0
299,317,310,328,0
299,310,309,331,0
300,302,307,331,0
301,298,305,330,0
303,301,305,328,0
307,306,305,325,0
310,310,305,320,0
312,311,306,315,0
311,310,307,310,0
310,308,306,307,0
308,305,305,305,0
307,300,304,304,0
307,295,304,305,0
307,290,304,306,0
305,286,304,307,0
304,283,304,306,0
303,285,303,303,0
303,290,302,299,0
302,293,300,294,0
301,293,299,291,0
302,288,298,289,0
302,282,299,289,0
303,273,299,291,0
303,264,300,294,0
303,262,302,299,0
303,272,304,304,0
302,291,305,310,0
302,314,306,314,0
305,335,306,316,0
308,348,305,316,0
310,351,304,316,0
311,347,304,316,0
313,338,305,317,0
316,327,307,317,0
321,316,308,316,0
326,304,308,314,0
324,293,306,312,0
317,283,304,309,0
309,275,301,306,0
303,266,300,302,0
299,260,298,298,0
295,261,296,294,0
291,268,295,292,0
289,280,295,292,0
289,292,296,293,0
291,303,297,295,0
294,310,299,298,0
296,314,301,301,0
299,321,303,306,0
302,328,306,311,0
305,332,308,316,0
307,332,309,318,0
309,331,309,318,0
309,328,308,317,0
308,325,307,315,0
307,322,307,314,0
305,318,306,312,0
305,315,306,310,0
304,312,306,308,0
303,307,305,306,0
304,302,305,305,0
305,294,305,307,0
305,286,306,310,0
306,280,306,315,0
307,280,306,318,0
309,285,306,319,0
309,294,305,317,0
309,302,304,313,0
309,307,303,309,0
307,308,301,305,0
305,306,301,301,0
302,299,300,297,0
300,288,300,295,0
299,275,300,293,0
299,266,301,291,0
300,264,301,290,0
300,266,302,290,0
301,272,302,290,0
301,281,303,291,0
301,295,303,294,0
303,309,304,300,0
305,321,304,307,0
307,329,304,313,0
309,328,304,318,0
312,320,304,319,0
313,310,303,319,0
311,305,303,318,0
308,308,304,319,0
307,315,305,321,0
305,319,305,322,0
303,323,304,321,0
302,328,303,318,0
301,330,302,316,0
301,327,301,313,0
300,323,301,309,0
301,320,300,305,0
300,316,301,300,0
300,311,301,297,0
299,307,301,296,0
300,306,301,295,0
300,308,301,296,0
301,312,302,297,0
301,316,302,300,0
302,317,304,302,0
304,315,305,304,0
306,313,307,307,0
308,311,308,309,0
309,310,310,310,0
310,309,311,310,0
311,308,311,308,0
310,308,311,306,0
310,307,311,307,0
309,307,311,310,0
308,307,310,314,0
307,306,310,318,0
305,304,310,319,0
304,302,310,319,0
304,300,308,317,0
304,299,307,314,0
305,298,306,314,0
305,297,306,315,0
304,294,307,319,0
304,290,309,323,0
305,287,309,327,0
305,286,309,330,0
306,281,309,330,0
306,281,309,330,0
309,294,310,330,0
312,317,311,330,0
314,338,311,328,0
313,346,310,322,0
311,344,310,315,0
307,334,309,309,0
304,323,308,303,0
304,311,307,298,0
304,302,305,294,0
305,296,303,291,0
305,294,301,290,0
304,293,299,291,0
303,295,298,292,0
304,298,298,295,0
304,300,298,298,0
305,300,298,300,0
307,302,299,302,0
309,307,301,304,0
312,311,303,306,0
314,316,306,308,0
313,320,307,310,0
309,324,308,309,0
305,324,307,307,0
302,322,307,305,0
300,319,305,302,0
299,315,305,300,0
298,309,303,297,0
298,304,302,295,0
300,297,302,297,0
303,292,302,302,0
306,287,303,309,0
308,284,303,314,0
308,284,303,316,0
308,285,302,315,0
307,286,301,312,0
305,288,299,307,0
304,291,299,303,0
303,298,300,301,0
304,306,301,302,0
306,311,303,304,0
308,311,304,307,0
309,309,305,309,0
310,307,305,312,0
311,306,305,312,0
312,303,305,311,0
314,300,304,310,0
314,299,304,310,0
311,298,303,309,0
306,296,303,310,0
301,292,303,310,0
298,290,303,311,0
296,292,302,312,0
296,291,301,313,0
300,286,301,313,0
309,280,302,314,0
319,276,302,313,0
324,279,303,312,0
323,286,303,311,0
315,292,303,309,0
308,297,304,307,0
303,307,305,304,0
302,328,305,303,0
304,350,305,301,0
306,360,305,300,0
308,359,305,298,0
309,354,305,297,0
309,350,304,297,0
309,344,304,296,0
309,338,304,295,0
310,328,302,295,0
310,313,301,295,0
309,294,300,296,0
310,276,300,298,0
310,262,301,302,0
311,255,303,311,0
312,260,305,322,0
313,277,307,334,0
314,298,310,343,0
315,314,312,346,0
316,322,314,345,0
315,322,316,341,0
314,313,317,334,0
312,299,316,326,0
309,286,314,316,0
306,280,312,307,0
303,283,310,298,0
301,291,308,291,0
298,298,305,284,0
297,304,304,280,0
298,307,303,278,0
302,313,303,278,0
307,322,304,278,0
311,329,303,278,0
313,331,303,279,0
313,332,302,279,0
313,331,301,280,0
313,330,301,282,0
315,328,301,285,0
318,322,301,287,0
320,311,302,291,0
322,299,304,295,0
322,287,305,300,0
320,279,306,305,0
317,277,307,309,0
314,277,307,312,0
311,281,308,313,0
308,286,309,313,0
305,293,309,313,0
302,300,310,310,0
299,304,309,306,0
297,304,309,302,0
297,301,308,297,0
300,298,308,294,0
303,299,308,292,0
308,303,308,294,0
313,305,308,297,0
320,299,309,302,0
324,287,308,305,0
326,274,308,306,0
323,266,307,307,0
316,259,307,307,0
309,253,307,307,0
304,260,308,307,0
303,285,308,308,0
304,317,308,311,0
306,338,308,314,0
308,348,307,316,0
308,350,306,317,0
309,349,306,317,0
309,348,305,316,0
309,345,304,314,0
309,343,304,311,0
308,341,304,309,0
308,340,304,308,0
308,338,305,307,0
307,333,305,308,0
308,326,305,311,0
309,317,305,314,0
310,310,306,315,0
311,305,306,315,0
312,305,307,313,0
312,307,307,311,0
312,313,307,308,0
311,319,306,305,0
310,323,306,304,0
308,321,306,305,0
307,316,306,307,0
305,310,307,308,0
303,303,308,308,0
302,297,308,308,0
301,293,308,307,0
301,293,307,307,0
302,294,307,307,0
304,294,306,307,0
306,296,306,306,0
308,298,307,306,0
308,300,308,307,0
308,302,310,310,0
307,302,312,315,0
306,303,313,319,0
306,302,313,322,0
308,301,313,324,0
310,298,313,324,0
313,291,312,321,0
315,283,312,317,0
315,275,311,313,0
312,269,310,311,0
308,270,310,313,0
305,276,310,319,0
303,281,310,325,0
302,283,309,331,0
302,282,308,332,0
302,279,306,330,0
304,280,305,324,0
305,288,304,315,0
307,304,304,307,0
310,323,303,301,0
312,336,304,296,0
313,340,305,292,0
313,338,307,289,0
313,334,309,288,0
312,326,311,287,0
310,318,312,286,0
311,315,311,287,0
313,318,311,288,0
317,324,310,288,0
320,326,309,288,0
318,324,309,290,0
312,319,310,291,0
309,312,311,292,0
305,303,312,293,0
303,293,312,293,0
300,283,312,294,0
300,275,313,296,0
302,267,313,299,0
304,263,313,301,0
306,265,312,304,0
306,271,310,305,0
305,275,309,307,0
304,269,308,307,0
302,259,307,307,0
300,247,306,306,0
299,237,304,305,0
299,238,304,307,0
302,256,306,312,0
305,284,308,318,0
305,310,309,323,0
305,329,309,326,0
304,342,309,326,0
303,350,307,325,0
303,353,306,322,0
303,354,305,317,0
304,353,304,311,0
306,350,303,305,0
306,346,302,299,0
307,343,302,296,0
308,341,302,295,0
309,338,302,295,0
309,332,303,296,0
309,324,303,298,0
308,314,304,300,0
306,303,304,303,0
303,298,305,305,0
303,301,306,308,0
303,310,307,310,0
305,319,309,312,0
307,323,309,313,0
308,324,310,312,0
309,319,310,312,0
308,309,308,312,0
308,297,306,312,0
308,286,303,313,0
309,277,301,318,0
310,274,300,325,0
311,280,300,331,0
312,289,301,337,0
313,297,302,344,0
314,301,302,348,0
314,302,302,348,0
315,303,303,344,0
315,305,303,335,0
313,308,303,325,0
311,312,302,314,0
309,317,301,304,0
307,319,299,294,0
305,320,297,286,0
303,317,296,281,0
301,312,296,278,0
300,305,296,277,0
299,296,297,278,0
300,286,297,279,0
301,274,298,279,0
301,259,298,279,0
302,240,297,279,0
303,222,297,281,0
304,214,297,284,0
306,223,298,287,0
306,244,299,289,0
306,270,301,291,0
306,296,303,293,0
307,318,305,296,0
306,335,305,298,0
305,345,305,300,0
303,349,304,300,0
301,348,303,300,0
300,342,302,300,0
298,333,301,301,0
297,326,301,302,0
298,324,301,306,0
299,327,302,310,0
301,329,303,315,0
302,327,304,320,0
303,322,304,323,0
303,319,303,324,0
304,320,303,325,0
307,323,303,323,0
308,329,303,320,0
310,334,302,316,0
309,340,301,313,0
308,344,301,309,0
305,346,301,307,0
303,343,301,305,0
302,335,301,303,0
300,321,301,303,0
297,308,301,303,0
296,304,302,304,0
297,306,302,306,0
299,307,303,307,0
302,305,303,306,0
307,305,303,304,0
312,305,302,302,0
318,305,301,301,0
324,304,301,302,0
326,301,300,303,0
324,296,299,305,0
319,291,299,310,0
314,288,299,315,0
310,286,300,319,0
306,285,301,321,0
302,281,301,319,0
299,275,301,315,0
297,271,301,309,0
295,268,299,304,0
292,263,298,300,0
289,259,297,297,0
288,264,298,296,0
290,279,298,295,0
293,295,300,297,0
296,303,301,300,0
298,301,302,302,0
299,296,303,304,0
300,291,304,304,0
301,290,303,304,0
303,295,303,305,0
304,310,302,308,0
305,328,302,314,0
306,343,302,320,0
307,350,303,324,0
308,351,303,323,0
308,350,304,320,0
309,344,305,317,0
309,336,305,313,0
307,325,306,308,0
306,314,306,304,0
305,306,305,300,0
304,300,305,297,0
302,294,304,294,0
301,288,304,291,0
300,286,303,288,0
301,291,302,286,0
303,303,301,286,0
307,315,299,288,0
311,324,298,292,0
313,332,297,296,0
309,339,297,301,0
304,340,298,305,0
301,334,299,309,0
300,327,300,311,0
301,322,301,313,0
302,319,302,313,0
303,319,303,312,0
303,319,304,310,0
304,319,304,306,0
304,318,302,302,0
303,316,301,299,0
301,313,300,298,0
299,312,300,298,0
297,312,300,300,0
296,315,301,301,0
296,317,301,302,0
296,314,301,302,0
297,306,301,303,0
300,295,302,303,0
304,286,303,305,0
307,282,304,308,0
310,282,305,312,0
313,287,306,315,0
315,295,306,318,0
317,301,306,319,0
317,304,306,321,0
315,304,307,322,0
311,301,307,322,0
306,296,307,320,0
300,289,306,316,0
296,278,306,312,0
293,267,306,308,0
292,262,306,307,0
293,259,307,305,0
295,261,308,305,0
296,270,308,305,0
297,286,309,306,0
297,310,309,307,0
297,335,309,308,0
298,354,309,310,0
299,363,308,311,0
299,365,308,311,0
300,361,308,312,0
301,349,308,312,0
303,333,308,312,0
305,319,309,311,0
309,310,309,310,0
314,305,309,308,0
319,304,309,306,0
321,303,308,304,0
319,305,308,303,0
314,309,308,303,0
310,315,308,304,0
305,319,309,307,0
302,322,310,310,0
301,320,312,314,0
300,315,313,317,0
300,310,313,319,0
300,307,314,320,0
301,304,314,319,0
303,303,314,318,0
307,301,313,316,0
310,300,311,313,0
311,299,309,312,0
310,300,307,311,0
309,301,306,309,0
307,303,306,308,0
306,307,305,307,0
305,312,306,306,0
304,317,307,305,0
304,320,308,304,0
305,320,308,301,0
304,315,307,299,0
303,309,305,296,0
302,301,303,295,0
301,290,302,294,0
300,280,302,295,0
301,276,301,297,0
302,275,301,300,0
304,277,301,304,0
306,277,302,309,0
307,276,303,314,0
307,273,304,318,0
306,271,306,320,0
306,272,307,320,0
305,278,308,319,0
306,288,309,315,0
307,300,308,311,0
308,314,307,307,0
309,328,305,302,0
309,337,303,298,0
310,344,302,295,0
310,347,300,294,0
310,345,300,295,0
311,339,300,296,0
311,330,300,297,0
312,320,300,296,0
311,310,299,293,0
311,298,298,290,0
311,287,297,286,0
314,277,296,282,0
317,273,295,282,0
322,275,296,285,0
323,279,300,290,0
318,286,303,297,0
312,298,306,304,0
307,316,309,309,0
304,341,310,315,0
303,359,311,319,0
303,365,311,321,0
304,360,311,322,0
306,347,311,322,0
310,331,312,320,0
313,316,312,318,0
312,307,312,314,0
309,300,311,310,0
305,295,309,306,0
304,289,308,303,0
303,286,306,301,0
304,284,305,299,0
304,284,305,300,0
305,282,305,302,0
305,276,306,305,0
303,267,306,309,0
301,252,307,313,0
299,235,307,315,0
298,229,308,315,0
299,245,309,314,0
301,270,309,312,0
304,294,309,310,0
306,313,309,308,0
306,323,309,307,0
305,325,308,308,0
304,323,308,310,0
303,319,307,311,0
303,316,306,313,0
302,316,306,314,0
301,317,306,314,0
301,319,306,314,0
302,319,305,314,0
303,316,305,313,0
304,309,304,314,0
304,298,304,315,0
306,284,304,316,0
307,272,304,316,0
308,260,304,316,0
307,248,304,314,0
303,242,303,309,0
297,252,301,303,0
292,276,301,297,0
287,297,300,291,0
285,315,301,285,0
287,332,303,282,0
294,340,305,284,0
302,335,308,287,0
308,324,310,292,0
312,313,311,295,0
315,303,312,297,0
316,294,310,298,0
315,286,308,298,0
314,282,306,299,0
312,282,305,300,0
311,285,304,303,0
310,291,304,307,0
310,297,305,310,0
312,303,306,312,0
313,307,307,312,0
312,307,306,311,0
310,305,305,307,0
308,302,303,304,0
307,301,302,302,0
305,304,303,303,0
304,308,304,304,0
304,309,305,305,0
301,306,305,306,0
297,295,304,306,0
294,284,304,306,0
292,279,304,307,0
292,283,305,308,0
292,291,305,308,0
293,297,305,308,0
294,295,305,309,0
295,290,305,309,0
296,288,306,309,0
297,293,307,308,0
300,300,308,309,0
302,304,308,310,0
303,304,309,311,0
302,299,308,310,0
301,288,308,309,0
301,282,308,308,0
302,289,308,309,0
305,306,309,312,0
308,324,309,317,0
310,334,309,320,0
311,330,309,320,0
308,315,309,319,0
303,292,310,315,0
297,258,310,310,0
293,219,310,304,0
290,183,308,299,0
291,172,307,296,0
297,200,306,297,0
309,250,307,300,0
319,299,307,303,0
322,335,308,303,0
319,357,308,303,0
314,369,308,300,0
310,377,309,296,0
307,384,308,293,0
304,392,308,293,0
302,396,307,295,0
300,390,307,298,0
299,376,307,302,0
299,358,308,305,0
301,340,309,309,0
302,327,309,311,0
304,318,309,311,0
305,314,309,309,0
306,313,307,306,0
307,313,306,303,0
309,315,306,302,0
310,317,306,301,0
312,322,307,301,0
314,326,308,302,0
316,330,310,303,0
316,332,311,302,0
313,333,311,302,0
311,334,310,302,0
308,330,309,302,0
307,316,307,303,0
306,295,306,303,0
306,275,304,304,0
304,260,302,305,0
302,247,301,305,0
299,237,301,305,0
298,245,300,305,0
299,272,300,306,0
301,303,302,305,0
304,323,304,302,0
307,333,305,298,0
308,335,305,294,0
309,334,305,291,0
309,331,306,291,0
310,327,307,292,0
309,322,308,293,0
308,317,309,295,0
304,314,309,296,0
301,310,309,298,0
299,306,309,300,0
300,303,310,301,0
301,304,309,301,0
302,311,308,301,0
301,325,306,300,0
301,346,304,299,0
301,362,303,297,0
301,367,302,296,0
303,358,301,297,0
306,339,302,301,0
310,314,303,305,0
314,292,305,310,0
317,276,306,314,0
318,269,308,316,0
318,273,309,318,0
318,281,310,318,0
318,288,310,317,0
317,293,310,315,0
314,296,309,313,0
311,297,308,309,0
308,297,306,304,0
305,295,304,300,0
302,286,303,297,0
302,275,303,295,0
302,262,302,294,0
302,245,303,295,0
303,229,304,295,0
305,230,305,297,0
308,253,306,300,0
311,285,306,305,0
314,314,307,310,0
316,334,306,316,0
316,345,306,320,0
316,349,306,323,0
316,347,306,325,0
314,343,307,326,0
313,338,308,327,0
311,331,308,325,0
309,323,308,322,0
307,314,307,317,0
305,306,305,310,0
305,301,303,304,0
306,300,303,301,0
307,305,302,302,0
309,313,302,307,0
311,320,302,311,0
312,322,302,313,0
312,320,302,311,0
309,316,301,308,0
306,310,300,304,0
304,308,301,301,0
304,309,302,300,0
306,315,304,301,0
309,319,306,303,0
311,319,308,304,0
313,313,309,304,0
314,305,309,303,0
315,302,309,303,0
314,306,309,302,0
313,311,309,299,0
312,319,308,296,0
310,330,306,292,0
308,340,305,289,0
306,348,305,288,0
305,352,305,288,0
305,348,305,291,0
305,334,306,295,0
304,316,306,300,0
304,301,307,304,0
304,289,307,306,0
304,282,307,307,0
305,278,307,308,0
307,278,307,308,0
310,282,307,308,0
313,285,307,308,0
316,287,308,307,0
317,290,309,306,0
318,293,310,306,0
319,296,311,306,0
320,300,310,306,0
322,306,309,307,0
320,313,308,307,0
313,320,309,307,0
305,323,308,305,0
299,322,307,303,0
297,319,306,301,0
297,316,305,300,0
299,313,305,300,0
301,308,305,299,0
302,300,305,300,0
303,289,304,301,0
303,282,304,302,0
304,281,304,303,0
306,285,305,305,0
308,292,307,307,0
310,300,310,311,0
312,308,311,314,0
313,313,312,316,0
312,315,312,317,0
310,317,311,316,0
307,316,310,314,0
304,311,309,311,0
302,304,307,308,0
301,296,306,304,0
300,286,305,302,0
299,274,304,300,0
299,271,303,300,0
300,280,302,301,0
302,287,302,303,0
303,292,302,304,0
306,302,302,305,0
309,313,302,307,0
313,318,302,308,0
316,317,303,308,0
318,315,304,306,0
314,313,305,305,0
307,311,306,304,0
300,312,307,304,0
298,315,308,305,0
298,316,309,305,0
300,313,308,304,0
302,302,307,303,0
302,284,305,301,0
301,267,305,299,0
300,258,305,299,0
300,263,305,301,0
300,277,307,305,0
301,300,308,310,0
302,322,309,312,0
303,335,308,313,0
303,339,307,313,0
303,338,307,313,0
303,335,307,313,0
303,332,307,317,0
304,330,307,320,0
304,330,307,322,0
304,330,308,321,0
306,329,307,317,0
307,325,307,311,0
310,320,306,303,0
313,315,306,297,0
316,310,306,293,0
315,307,305,290,0
312,312,305,289,0
310,324,305,288,0
307,338,306,288,0
305,349,307,290,0
304,355,307,292,0
304,356,308,295,0
306,348,308,299,0
309,330,309,302,0
311,309,309,305,0
313,292,310,306,0
314,281,310,306,0
316,278,309,306,0
316,279,310,306,0
317,284,311,305,0
316,288,311,305,0
315,288,312,305,0
313,282,312,307,0
310,274,312,310,0
308,266,312,313,0
307,260,312,315,0
306,263,312,315,0
305,276,311,313,0
304,294,310,312,0
305,307,309,311,0
307,313,309,309,0
308,313,307,305,0
309,310,305,301,0
310,312,304,296,0
312,316,304,294,0
314,317,305,293,0
316,312,307,295,0
317,306,308,299,0
317,301,310,303,0
317,301,311,307,0
316,306,312,310,0
315,312,312,311,0
313,313,313,312,0
312,313,314,312,0
311,314,313,312,0
311,317,312,312,0
309,320,312,313,0
309,323,311,315,0
308,325,310,317,0
307,326,310,317,0
306,325,308,317,0
304,322,307,316,0
302,320,306,314,0
300,318,304,311,0
297,323,304,308,0
295,330,304,304,0
293,334,304,302,0
293,329,305,303,0
294,315,307,305,0
298,297,310,310,0
303,277,312,314,0
309,266,312,316,0
315,268,313,318,0
321,278,314,319,0
323,292,314,319,0
322,303,314,317,0
320,307,313,314,0
316,303,312,310,0
309,294,310,306,0
303,283,309,304,0
299,275,307,302,0
298,271,307,300,0
298,270,307,298,0
299,271,306,297,0
300,274,306,297,0
300,280,305,297,0
301,287,305,299,0
302,293,305,301,0
302,300,305,303,0
302,311,307,305,0
303,326,308,307,0
304,337,309,308,0
305,344,309,307,0
305,344,309,306,0
305,342,309,305,0
304,339,308,304,0
303,337,308,303,0
303,337,308,304,0
302,333,309,305,0
301,322,309,306,0
300,307,309,306,0
300,291,307,306,0
299,282,306,304,0
300,283,305,303,0
300,289,305,303,0
302,299,306,305,0
306,311,307,311,0
312,317,310,319,0
317,320,312,328,0
319,320,313,334,0
320,318,314,337,0
318,316,315,337,0
314,314,314,335,0
308,309,313,331,0
304,303,312,325,0
301,300,311,318,0
300,300,310,313,0
300,305,310,307,0
301,310,310,304,0
303,314,309,301,0
303,315,308,298,0
302,318,307,296,0
302,319,305,294,0
301,319,305,293,0
301,318,304,293,0
302,318,303,295,0
303,321,303,298,0
304,326,303,303,0
305,330,304,310,0
306,325,305,318,0
306,310,306,324,0
305,289,306,326,0
303,266,305,323,0
300,246,304,316,0
298,236,302,308,0
298,245,302,300,0
301,269,302,295,0
304,297,304,290,0
308,320,304,288,0
311,332,305,287,0
313,336,305,287,0
313,333,304,288,0
314,326,304,289,0
315,316,305,292,0
316,306,306,296,0
317,298,308,302,0
317,294,309,307,0
317,294,309,311,0
316,302,310,315,0
314,316,310,317,0
309,332,308,317,0
303,346,306,315,0
298,355,303,311,0
297,355,301,308,0
302,350,302,307,0
311,346,304,309,0
316,344,307,313,0
317,342,310,316,0
315,337,313,317,0
311,326,313,316,0
307,309,311,313,0
301,285,309,310,0
296,258,306,306,0
292,233,303,301,0
289,221,300,297,0
289,225,300,296,0
293,240,300,297,0
297,258,302,298,0
301,271,303,301,0
305,280,305,303,0
306,288,306,306,0
308,301,308,310,0
310,319,309,314,0
312,334,310,317,0
313,342,311,319,0
313,345,310,319,0
315,343,310,319,0
317,340,309,318,0
321,338,308,316,0
325,336,307,314,0
327,333,305,312,0
322,330,304,309,0
313,328,305,306,0
306,329,306,305,0
302,327,308,305,0
300,317,309,306,0
301,304,311,307,0
302,297,313,309,0
304,295,314,310,0
305,297,315,310,0
305,301,314,308,0
305,306,313,305,0
304,312,312,302,0
302,315,311,301,0
301,318,310,302,0
301,319,310,304,0
301,317,309,306,0
301,312,308,308,0
300,308,308,307,0
300,308,306,304,0
301,310,304,302,0
301,312,304,299,0
302,318,304,297,0
303,329,304,296,0
305,336,304,297,0
307,335,304,296,0
310,331,304,296,0
313,325,305,296,0
316,317,306,297,0
317,309,307,298,0
317,301,309,300,0
315,293,311,302,0
312,284,312,304,0
310,275,312,305,0
308,266,312,306,0
308,260,311,307,0
310,262,311,309,0
312,268,310,310,0
313,280,310,310,0
310,294,309,310,0
305,308,308,310,0
299,319,307,308,0
294,323,305,304,0
289,317,302,297,0
286,302,300,293,0
287,290,301,292,0
290,288,302,294,0
295,296,304,298,0
301,309,306,302,0
305,321,306,305,0
305,330,307,306,0
303,335,306,307,0
301,337,307,307,0
303,334,310,307,0
306,326,313,308,0
308,316,315,310,0
307,307,315,313,0
305,299,314,316,0
303,292,313,319,0
302,284,312,320,0
301,277,310,319,0
301,274,308,317,0
301,281,306,315,0
302,295,304,313,0
303,311,303,309,0
304,329,302,305,0
306,345,302,301,0
308,355,303,299,0
308,358,304,298,0
308,349,306,299,0
309,332,308,301,0
308,316,310,303,0
308,304,312,305,0
307,297,313,306,0
305,294,313,307,0
304,295,314,306,0
304,300,313,305,0
306,304,312,305,0
310,302,310,304,0
315,297,307,303,0
319,293,305,302,0
320,291,303,303,0
314,289,302,305,0
305,283,301,305,0
298,271,301,305,0
294,253,302,306,0
292,235,303,306,0
293,225,305,306,0
295,222,306,307,0
298,224,308,307,0
301,235,309,307,0
305,256,310,306,0
309,282,310,305,0
311,305,310,302,0
311,322,310,300,0
312,332,310,299,0
313,337,309,297,0
314,339,308,297,0
315,340,306,297,0
314,339,305,298,0
313,337,306,298,0
313,336,305,296,0
314,333,305,295,0
315,330,305,294,0
318,327,304,295,0
320,328,305,295,0
320,331,305,296,0
317,335,306,296,0
312,341,306,296,0
308,347,306,297,0
304,349,306,298,0
301,342,305,300,0
298,324,304,303,0
296,305,303,308,0
294,292,304,314,0
294,283,305,319,0
295,277,306,323,0
298,275,308,324,0
302,277,310,324,0
307,285,310,323,0
310,294,311,321,0
311,302,311,318,0
312,306,311,316,0
312,308,311,313,0
312,310,310,310,0
312,314,309,306,0
311,320,309,301,0
311,327,309,297,0
310,335,309,293,0
310,340,308,292,0
309,343,308,292,0
307,339,308,293,0
306,330,306,294,0
303,318,304,295,0
301,308,302,295,0
300,299,301,296,0
301,289,301,298,0
304,278,301,301,0
308,269,302,303,0
311,268,304,306,0
312,275,305,309,0
311,284,307,312,0
309,289,309,314,0
309,291,310,315,0
309,292,310,314,0
308,291,310,312,0
307,291,309,310,0
306,291,308,310,0
305,291,309,309,0
304,293,310,310,0
302,296,311,310,0
299,300,311,308,0
296,303,310,305,0
294,303,309,302,0
295,300,308,300,0
298,291,306,299,0
299,279,305,299,0
299,264,303,302,0
298,251,302,304,0
298,243,302,305,0
301,243,302,307,0
305,249,302,307,0
309,259,302,308,0
313,269,301,310,0
316,274,301,312,0
314,279,302,314,0
308,292,303,316,0
305,316,304,319,0
306,338,306,325,0
308,351,307,330,0
311,356,308,333,0
312,354,309,332,0
311,349,309,326,0
310,344,308,318,0
309,339,308,309,0
308,336,307,301,0
308,333,306,295,0
307,330,305,291,0
307,327,304,289,0
307,325,303,290,0
306,323,302,291,0
305,321,301,292,0
304,320,301,293,0
304,320,301,293,0
304,321,301,292,0
304,325,301,292,0
306,331,301,293,0
307,335,301,296,0
303,336,302,299,0
298,333,303,302,0
296,328,305,306,0
298,323,308,312,0
302,314,311,317,0
306,301,311,320,0
308,292,311,322,0
309,289,310,321,0
309,290,310,320,0
308,292,309,319,0
308,291,308,317,0
309,289,306,315,0
310,289,305,312,0
310,291,304,309,0
310,294,304,307,0
309,296,303,305,0
307,299,304,305,0
306,300,304,306,0
305,302,305,309,0
305,305,306,309,0
305,309,308,308,0
305,317,309,305,0
305,325,309,302,0
305,330,309,299,0
304,331,307,297,0
302,325,306,296,0
301,312,305,295,0
300,302,305,297,0
300,305,307,300,0
301,312,308,303,0
302,314,309,304,0
301,312,309,304,0
298,309,308,304,0
297,304,309,305,0
297,294,309,307,0
297,282,309,308,0
298,271,309,310,0
300,264,309,310,0
302,262,308,311,0
303,263,306,311,0
304,267,306,311,0
305,271,307,312,0
306,276,308,313,0
307,283,309,313,0
310,292,310,314,0
312,302,310,313,0
314,309,310,313,0
313,310,309,314,0
312,310,308,316,0
311,311,308,320,0
310,316,308,324,0
310,321,308,327,0
309,324,308,328,0
307,322,307,328,0
305,314,306,325,0
304,298,305,321,0
303,276,303,317,0
303,259,303,311,0
306,257,303,308,0
309,268,304,307,0
312,283,305,307,0
313,297,307,307,0
314,309,309,309,0
313,318,311,309,0
312,326,311,308,0
311,330,310,307,0
311,334,309,306,0
311,338,308,306,0
311,343,306,307,0
312,349,304,306,0
310,351,302,306,0
305,350,300,305,0
300,345,299,304,0
297,334,299,302,0
296,317,298,300,0
298,302,299,297,0
301,296,300,296,0
303,293,302,298,0
306,288,303,304,0
309,283,305,310,0
311,280,306,316,0
315,280,306,318,0
318,285,307,319,0
319,293,307,317,0
315,301,307,315,0
307,306,306,313,0
301,307,305,310,0
300,302,304,308,0
299,293,304,306,0
298,281,302,304,0
297,269,301,300,0
297,262,300,298,0
297,264,300,295,0
299,276,299,294,0
301,293,299,293,0
304,308,299,294,0
306,319,299,296,0
307,325,299,300,0
307,326,300,306,0
307,322,301,311,0
306,316,302,315,0
306,311,303,317,0
306,304,304,316,0
305,298,305,314,0
305,296,304,311,0
305,298,304,310,0
304,300,305,312,0
302,302,307,315,0
301,304,309,319,0
301,306,309,321,0
300,306,309,320,0
299,303,307,316,0
298,298,306,310,0
298,293,305,305,0
299,293,304,300,0
303,297,304,298,0
306,302,304,299,0
309,307,304,299,0
309,312,304,301,0
310,317,304,302,0
310,324,305,304,0
310,334,305,305,0
309,347,306,309,0
309,361,306,312,0
308,370,306,315,0
306,369,306,318,0
305,356,305,319,0
306,335,305,318,0
307,314,305,316,0
308,295,304,312,0
309,279,304,308,0
308,270,303,304,0
307,271,303,301,0
308,280,304,300,0
310,289,306,301,0
313,296,307,304,0
313,298,307,309,0
313,298,307,314,0
312,298,306,320,0
312,295,304,325,0
310,290,304,328,0
305,284,304,330,0
301,278,305,328,0
298,269,305,324,0
295,258,305,317,0
295,256,305,312,0
296,269,305,310,0
297,290,306,309,0
297,309,306,309,0
297,318,306,308,0
297,315,305,307,0
296,305,304,305,0
295,298,303,302,0
295,299,303,300,0
297,302,303,298,0
300,300,303,299,0
304,303,303,300,0
307,315,303,302,0
310,334,303,302,0
312,352,303,301,0
313,367,303,301,0
314,379,303,300,0
314,383,303,298,0
315,378,302,296,0
315,366,303,295,0
317,352,303,295,0
318,339,304,297,0
314,331,305,298,0
305,331,306,300,0
297,335,306,303,0
292,341,307,306,0
291,345,307,311,0
292,343,306,316,0
294,334,306,318,0
296,316,305,318,0
298,300,305,316,0
301,288,305,314,0
305,281,305,312,0
308,279,306,312,0
312,280,307,313,0
314,284,308,314,0
315,290,310,315,0
315,295,310,314,0
314,300,311,313,0
313,303,311,311,0
311,305,310,309,0
310,304,309,305,0
308,299,308,302,0
307,289,307,299,0
306,274,305,296,0
304,254,304,294,0
303,231,304,293,0
301,214,303,295,0
298,211,302,297,0
297,219,299,300,0
295,238,297,303,0
296,267,296,307,0
299,302,297,311,0
305,336,299,314,0
311,356,301,316,0
316,363,302,317,0
318,362,303,316,0
320,358,304,314,0
319,352,304,311,0
314,346,303,306,0
309,339,303,302,0
304,331,302,297,0
301,327,302,294,0
299,324,302,291,0
298,321,302,289,0
298,317,302,290,0
298,311,302,291,0
299,306,302,294,0
302,305,302,298,0
303,307,303,301,0
304,309,303,305,0
305,311,304,308,0
308,313,305,311,0
312,313,307,314,0
317,313,308,317,0
319,315,309,320,0
319,322,309,321,0
317,328,310,322,0
316,328,309,321,0
316,323,309,320,0
316,316,309,319,0
314,309,309,316,0
312,303,308,314,0
308,298,308,311,0
305,295,307,308,0
303,295,306,305,0
303,299,305,304,0
304,306,304,304,0
307,314,304,305,0
308,320,303,307,0
309,322,301,309,0
309,320,300,312,0
308,312,299,314,0
307,299,299,314,0
304,284,300,313,0
301,269,302,310,0
300,261,304,308,0
302,255,307,306,0
305,250,310,306,0
309,259,312,307,0
312,280,313,308,0
314,302,313,309,0
313,319,312,310,0
312,328,311,310,0
310,329,310,310,0
306,327,309,310,0
302,320,309,310,0
298,308,308,308,0
298,295,309,306,0
300,292,308,304,0
306,296,308,303,0
313,301,308,303,0
318,304,307,303,0
318,306,306,305,0
314,308,306,308,0
310,312,307,311,0
308,316,307,315,0
306,319,308,319,0
305,319,307,322,0
304,317,307,324,0
302,313,307,325,0
300,310,307,324,0
299,308,307,323,0
298,307,306,322,0
298,310,306,319,0
298,314,306,319,0
300,320,305,321,0
303,325,304,325,0
303,328,303,327,0
302,328,302,326,0
301,327,300,323,0
300,326,299,318,0
299,325,298,312,0
299,320,297,306,0
299,311,298,300,0
299,306,299,297,0
300,306,300,294,0
300,308,302,292,0
301,309,303,290,0
302,313,303,290,0
303,320,304,292,0
304,327,304,294,0
304,331,304,298,0
304,332,304,302,0
304,331,304,308,0
305,326,304,314,0
307,321,303,317,0
309,316,301,316,0
309,313,300,312,0
306,312,300,306,0
304,313,301,302,0
303,315,303,299,0
304,314,305,299,0
305,308,307,300,0
304,300,308,301,0
301,292,309,302,0
297,289,310,303,0
294,292,311,304,0
292,298,311,304,0
293,306,310,303,0
296,314,309,303,0
299,320,308,305,0
302,322,306,307,0
303,318,306,311,0
305,307,306,314,0
305,298,306,316,0
302,295,306,317,0
298,293,306,317,0
295,286,305,314,0
292,274,305,312,0
290,263,306,311,0
292,256,307,311,0
295,255,309,313,0
298,264,311,317,0
301,279,312,322,0
303,290,313,325,0
305,296,313,327,0
306,295,312,328,0
306,290,311,327,0
306,285,309,324,0
306,283,307,321,0
307,285,306,317,0
308,294,305,313,0
309,308,303,308,0
308,320,302,305,0
307,328,302,304,0
307,331,303,304,0
307,329,303,304,0
308,325,303,304,0
307,324,303,305,0
307,323,304,307,0
307,321,305,310,0
307,319,306,314,0
307,316,307,319,0
308,315,308,323,0
309,316,309,325,0
309,317,310,325,0
308,318,311,326,0
308,317,311,325,0
306,316,311,325,0
306,319,311,323,0
305,326,311,321,0
307,336,311,317,0
310,341,311,311,0
313,338,310,305,0
311,331,309,298,0
307,324,308,292,0
304,320,307,285,0
302,317,305,280,0
301,314,304,275,0
301,311,302,273,0
301,310,302,274,0
301,307,303,277,0
302,304,304,282,0
302,302,306,288,0
303,302,308,295,0
303,304,309,302,0
303,307,310,309,0
303,311,309,314,0
302,315,309,316,0
301,315,308,314,0
300,312,308,310,0
300,306,307,306,0
300,301,308,302,0
300,297,308,299,0
299,295,308,297,0
298,298,308,297,0
298,303,309,298,0
298,307,310,302,0
299,304,310,307,0
300,295,309,311,0
301,281,309,313,0
302,268,309,316,0
304,261,309,317,0
308,264,310,318,0
312,275,311,317,0
315,286,311,314,0
315,291,311,310,0
311,290,311,306,0
306,286,311,303,0
302,282,311,301,0
300,280,311,301,0
299,280,311,301,0
298,284,310,303,0
299,291,310,306,0
301,300,311,310,0
304,308,312,314,0
308,320,313,316,0
311,333,312,317,0
311,342,311,316,0
308,347,309,314,0
304,345,307,310,0
301,338,306,307,0
299,328,307,306,0
299,320,308,306,0
300,316,311,306,0
303,315,314,307,0
306,317,316,309,0
307,318,316,309,0
307,318,316,311,0
306,318,316,313,0
306,318,315,315,0
305,317,314,315,0
304,315,313,314,0
304,313,312,313,0
304,311,311,312,0
305,308,310,309,0
305,306,308,307,0
304,305,307,307,0
304,305,305,307,0
302,304,304,308,0
301,301,303,308,0
300,298,303,309,0
299,300,304,310,0
298,304,306,314,0
297,305,309,318,0
297,297,311,323,0
298,285,313,326,0
299,277,314,328,0
302,268,315,328,0
302,256,314,325,0
303,249,313,321,0
304,249,312,315,0
304,255,312,308,0
304,271,310,301,0
304,293,308,293,0
304,315,305,286,0
304,333,303,281,0
303,345,302,279,0
303,350,301,280,0
303,349,302,282,0
302,344,303,285,0
303,337,305,289,0
304,330,307,295,0
305,325,310,301,0
306,321,313,308,0
306,319,315,316,0
305,315,316,320,0
305,309,316,321,0
305,300,314,317,0
305,292,311,311,0
305,288,310,305,0
303,288,307,301,0
301,295,306,298,0
299,308,305,298,0
299,321,306,301,0
302,330,308,303,0
307,336,309,305,0
309,337,310,305,0
311,336,309,305,0
312,333,308,305,0
314,330,309,305,0
313,326,310,308,0
312,322,312,312,0
313,319,312,315,0
313,317,312,317,0
311,316,313,318,0
308,317,313,318,0
306,318,313,316,0
305,318,313,313,0
303,319,313,311,0
303,321,312,310,0
303,322,312,310,0
304,321,311,313,0
305,318,311,315,0
305,314,312,317,0
304,311,311,317,0
302,309,310,314,0
301,308,309,311,0
300,308,308,307,0
301,307,307,305,0
302,306,307,303,0
303,305,308,302,0
303,304,308,303,0
304,302,308,304,0
304,297,309,305,0
304,287,310,306,0
302,274,311,307,0
301,260,311,308,0
300,250,310,308,0
300,250,311,308,0
300,259,311,308,0
299,272,311,309,0
299,289,311,310,0
299,306,311,313,0
300,321,311,316,0
302,328,311,318,0
304,327,311,319,0
305,323,311,316,0
305,321,311,312,0
305,320,310,308,0
307,317,310,306,0
309,314,310,305,0
310,312,309,305,0
310,311,308,304,0
310,310,307,303,0
311,310,307,301,0
311,310,308,299,0
311,309,309,297,0
310,305,309,296,0
308,298,308,295,0
304,291,306,294,0
300,285,304,293,0
296,280,303,291,0
293,278,301,290,0
292,281,301,292,0
293,291,303,297,0
297,302,305,304,0
303,308,308,311,0
307,313,310,316,0
311,316,311,321,0
313,317,312,324,0
315,317,312,327,0
315,318,312,330,0
314,320,312,335,0
313,321,312,339,0
312,321,313,340,0
312,322,313,337,0
310,322,314,332,0
310,323,314,325,0
310,322,313,315,0
310,319,310,306,0
310,312,307,298,0
309,304,305,292,0
307,296,304,290,0
305,288,303,290,0
302,281,303,293,0
297,273,303,294,0
293,262,303,293,0
291,259,303,292,0
293,270,304,293,0
297,285,304,294,0
301,297,304,296,0
305,305,305,298,0
309,311,305,299,0
310,315,307,301,0
311,318,307,304,0
311,322,308,306,0
310,327,309,309,0
309,330,309,312,0
308,333,308,315,0
306,333,308,317,0
305,330,308,318,0
304,324,308,320,0
302,319,309,321,0
302,315,310,322,0
300,311,310,324,0
299,309,310,325,0
300,308,309,328,0
303,307,308,330,0
307,304,306,332,0
310,302,305,333,0
312,304,304,332,0
312,308,302,329,0
312,314,301,324,0
310,318,301,318,0
309,319,301,313,0
308,317,302,308,0
307,313,303,304,0
306,304,303,301,0
305,293,304,298,0
304,286,304,296,0
303,287,304,294,0
302,289,303,293,0
301,291,302,293,0
301,291,301,293,0
302,294,301,294,0
304,300,301,295,0
305,304,301,295,0
307,307,301,296,0
308,309,302,297,0
310,311,303,298,0
311,313,304,299,0
312,314,305,300,0
313,314,306,303,0
315,312,308,308,0
317,311,310,314,0
320,310,312,321,0
323,309,313,325,0
325,309,313,325,0
324,308,312,324,0
318,307,310,322,0
309,304,307,317,0
302,298,305,311,0
297,287,303,306,0
294,274,303,303,0
292,269,303,302,0
291,272,303,300,0
291,279,302,299,0
291,285,300,298,0
292,292,300,297,0
297,300,301,298,0
303,310,304,301,0
310,320,305,305,0
315,325,306,311,0
318,327,307,319,0
319,328,308,328,0
317,330,309,335,0
313,331,309,339,0
308,332,310,340,0
305,332,310,339,0
304,328,310,336,0
305,321,310,331,0
308,314,310,323,0
309,308,309,316,0
308,302,308,311,0
304,299,307,305,0
301,298,305,300,0
298,298,304,295,0
297,298,303,291,0
296,296,303,286,0
295,289,302,283,0
294,281,302,281,0
296,274,304,282,0
300,275,305,285,0
304,282,305,290,0
307,290,306,296,0
308,300,307,302,0
306,309,307,307,0
304,313,306,309,0
302,312,306,312,0
301,307,306,313,0
302,299,306,314,0
302,291,306,314,0
302,286,305,313,0
301,283,304,309,0
300,285,303,306,0
300,292,303,303,0
302,299,303,300,0
303,304,303,297,0
304,307,303,295,0
306,310,304,294,0
307,314,304,295,0
307,317,305,297,0
307,316,306,301,0
306,314,306,306,0
306,311,307,310,0
307,310,308,313,0
309,310,309,314,0
310,309,309,314,0
310,306,309,312,0
309,302,308,311,0
308,296,307,309,0
306,289,306,307,0
306,283,305,305,0
305,278,303,301,0
305,274,300,297,0
306,275,299,294,0
307,283,296,291,0
308,295,294,290,0
309,305,292,290,0
310,313,291,291,0
312,319,292,293,0
315,323,294,297,0
316,325,296,301,0
318,322,298,305,0
317,316,301,309,0
316,308,303,312,0
313,301,305,314,0
310,297,305,315,0
308,296,305,314,0
306,298,305,311,0
304,299,304,309,0
304,298,302,308,0
303,294,302,308,0
303,290,301,309,0
302,288,301,309,0
302,286,301,307,0
302,287,300,303,0
303,291,300,300,0
305,299,300,297,0
307,305,301,297,0
309,308,301,298,0
310,310,302,301,0
310,311,303,303,0
310,313,305,304,0
311,318,306,305,0
314,324,306,307,0
316,325,306,308,0
316,319,305,308,0
313,308,305,307,0
308,294,304,306,0
306,276,304,302,0
307,261,305,298,0
308,251,306,296,0
305,249,307,295,0
300,259,308,296,0
297,275,308,297,0
295,292,308,297,0
295,304,308,295,0
298,308,307,294,0
301,309,306,296,0
303,308,304,300,0
303,311,304,304,0
303,321,304,306,0
302,335,304,307,0
303,347,305,306,0
303,350,307,304,0
302,342,308,301,0
302,329,309,299,0
304,319,311,298,0
307,313,311,299,0
309,311,312,301,0
311,311,311,303,0
312,313,311,305,0
312,313,311,307,0
311,311,311,308,0
310,305,310,307,0
308,299,309,305,0
308,296,309,302,0
308,296,310,299,0
308,292,309,296,0
307,287,308,295,0
307,287,308,295,0
307,291,307,297,0
308,295,307,299,0
309,298,307,301,0
308,301,307,301,0
306,308,307,301,0
305,318,307,301,0
306,323,308,300,0
308,323,310,300,0
310,321,310,300,0
310,317,311,300,0
309,315,311,301,0
308,314,312,303,0
306,314,311,308,0
304,313,309,312,0
303,312,308,316,0
303,312,307,318,0
303,312,306,318,0
304,308,306,315,0
304,304,306,311,0
302,301,306,306,0
301,296,305,302,0
299,290,304,298,0
298,283,303,296,0
298,277,302,295,0
297,272,302,295,0
298,271,303,294,0
299,276,303,294,0
297,284,305,292,0
296,291,305,291,0
295,295,307,291,0
296,297,309,292,0
298,298,310,294,0
301,298,310,295,0
303,298,308,297,0
305,301,306,300,0
306,303,305,303,0
307,303,305,306,0
308,301,306,308,0
309,298,307,309,0
309,295,308,309,0
309,294,308,308,0
309,298,308,307,0
309,308,308,307,0
309,320,309,309,0
308,327,309,310,0
307,329,309,311,0
308,326,309,314,0
310,322,309,317,0
313,319,309,321,0
316,314,309,325,0
313,305,309,328,0
305,292,309,329,0
299,278,310,328,0
298,266,311,324,0
298,252,310,318,0
298,239,309,312,0
296,237,307,308,0
296,252,305,304,0
296,278,304,302,0
297,305,304,300,0
299,325,304,297,0
300,333,304,294,0
300,334,304,294,0
301,334,305,295,0
301,335,308,296,0
302,334,309,297,0
302,331,310,298,0
304,332,309,300,0
306,332,310,303,0
307,331,312,306,0
308,327,314,308,0
309,319,314,309,0
310,310,314,309,0
311,302,313,308,0
310,299,311,306,0
309,301,308,304,0
306,304,305,301,0
305,305,303,298,0
305,304,302,296,0
305,302,303,295,0
305,304,305,296,0
304,307,307,298,0
304,312,308,300,0
303,315,308,302,0
302,315,308,304,0
300,314,309,307,0
297,313,309,310,0
292,312,309,312,0
287,314,309,314,0
286,314,310,317,0
288,311,312,321,0
291,307,313,323,0
295,305,314,323,0
298,302,313,321,0
301,295,311,317,0
302,286,310,311,0
303,282,308,304,0
305,283,308,298,0
307,288,308,294,0
309,294,309,292,0
311,301,310,293,0
313,307,311,296,0
313,316,312,300,0
312,323,313,302,0
311,323,314,302,0
310,314,314,300,0
312,302,315,297,0
315,291,316,294,0
318,285,314,291,0
318,286,313,289,0
312,293,310,287,0
302,300,309,287,0
295,307,308,288,0
293,315,309,292,0
295,318,310,296,0
297,314,310,300,0
299,308,311,305,0
300,306,312,310,0
301,304,314,314,0
302,301,314,319,0
306,302,315,324,0
310,309,315,329,0
313,319,315,331,0
316,327,316,333,0
316,329,316,332,0
315,323,316,328,0
314,311,316,324,0
314,300,315,320,0
314,296,314,316,0
314,299,313,313,0
314,307,312,309,0
310,321,312,304,0
306,331,312,300,0
303,333,312,299,0
301,330,311,300,0
301,325,311,300,0
302,319,311,299,0
304,317,310,298,0
305,317,310,298,0
306,319,310,300,0
307,325,310,302,0
308,331,311,305,0
308,333,311,308,0
308,331,311,309,0
307,325,311,308,0
305,315,310,306,0
303,302,309,302,0
302,294,308,297,0
302,294,307,293,0
302,296,307,289,0
302,294,307,285,0
303,292,307,283,0
305,293,307,283,0
307,296,308,284,0
308,300,310,286,0
310,305,311,289,0
311,311,311,292,0
313,317,310,296,0
315,321,310,299,0
314,320,310,301,0
312,313,311,304,0
309,300,312,307,0
307,290,314,311,0
305,289,316,316,0
305,297,318,319,0
305,308,318,322,0
306,318,318,324,0
306,327,317,324,0
306,333,315,322,0
305,335,314,319,0
305,331,312,315,0
304,322,310,310,0
303,311,308,306,0
303,301,307,304,0
302,292,306,302,0
303,286,305,301,0
304,287,305,300,0
307,293,305,298,0
308,300,305,296,0
308,305,305,296,0
308,308,306,299,0
309,307,306,304,0
309,304,308,307,0
309,299,309,309,0
308,294,310,310,0
307,290,311,308,0
307,289,312,307,0
307,293,312,306,0
307,299,311,305,0
307,305,311,304,0
308,309,310,303,0
307,312,310,301,0
307,313,309,299,0
306,314,308,298,0
305,315,308,300,0
306,317,309,304,0
308,316,310,307,0
310,313,310,308,0
310,309,309,308,0
309,307,308,308,0
309,312,308,308,0
309,318,310,310,0
309,323,312,312,0
310,324,312,314,0
313,324,313,315,0
316,323,311,314,0
317,321,309,313,0
315,314,307,311,0
313,303,306,310,0
313,291,304,308,0
314,284,303,307,0
310,283,302,306,0
304,286,302,305,0
300,291,301,304,0
298,297,301,302,0
298,300,301,301,0
299,297,301,301,0
302,292,301,301,0
304,292,301,300,0
306,294,301,297,0
307,295,301,294,0
308,295,301,292,0
308,300,302,291,0
308,309,303,292,0
307,321,304,293,0
307,332,305,295,0
307,336,306,296,0
305,334,306,297,0
304,330,305,299,0
303,327,304,300,0
303,323,304,301,0
303,320,303,300,0
303,314,302,298,0
304,307,301,297,0
304,304,300,294,0
304,305,299,292,0
304,311,298,291,0
306,316,298,291,0
308,316,298,293,0
309,312,299,297,0
308,304,299,300,0
306,298,301,302,0
303,296,302,303,0
302,299,304,304,0
300,306,306,305,0
300,313,307,306,0
300,317,308,308,0
300,317,308,311,0
301,312,308,313,0
302,305,307,313,0
304,297,306,309,0
305,290,304,305,0
307,288,302,301,0
308,292,300,298,0
309,300,298,296,0
310,308,297,296,0
310,316,297,297,0
309,321,298,301,0
309,324,298,306,0
308,325,299,310,0
308,326,300,316,0
309,326,300,322,0
309,325,301,326,0
309,325,302,328,0
308,326,303,326,0
307,326,302,321,0
305,327,302,315,0
